timestamp,window,sample,ir_raw,red_raw,true_hr
2026-04-18T19:52:42.157,1,0,169959,140809,75.0
2026-04-18T19:52:42.177,1,1,170215,141571,75.0
2026-04-18T19:52:42.197,1,2,170215,141571,75.0
2026-04-18T19:52:42.217,1,3,170215,141571,75.0
2026-04-18T19:52:42.237,1,4,170215,141571,75.0
2026-04-18T19:52:42.257,1,5,171463,145110,75.0
2026-04-18T19:52:42.277,1,6,171463,145110,75.0
2026-04-18T19:52:42.297,1,7,171463,145110,75.0
2026-04-18T19:52:42.318,1,8,171463,145110,75.0
2026-04-18T19:52:42.337,1,9,171898,146210,75.0
2026-04-18T19:52:42.357,1,10,171898,146210,75.0
2026-04-18T19:52:42.377,1,11,171898,146210,75.0
2026-04-18T19:52:42.397,1,12,171898,146210,75.0
2026-04-18T19:52:42.417,1,13,171044,143436,75.0
2026-04-18T19:52:42.437,1,14,171044,143436,75.0
2026-04-18T19:52:42.457,1,15,171044,143436,75.0
2026-04-18T19:52:42.477,1,16,171044,143436,75.0
2026-04-18T19:52:42.497,1,17,169839,139731,75.0
2026-04-18T19:52:42.517,1,18,169839,139731,75.0
2026-04-18T19:52:42.537,1,19,169839,139731,75.0
2026-04-18T19:52:42.557,1,20,169839,139731,75.0
2026-04-18T19:52:42.577,1,21,169053,137442,75.0
2026-04-18T19:52:42.596,1,22,169053,137442,75.0
2026-04-18T19:52:42.617,1,23,169053,137442,75.0
2026-04-18T19:52:42.637,1,24,169053,137442,75.0
2026-04-18T19:52:42.657,1,25,168686,136449,75.0
2026-04-18T19:52:42.676,1,26,168686,136449,75.0
2026-04-18T19:52:42.697,1,27,168686,136449,75.0
2026-04-18T19:52:42.716,1,28,168686,136449,75.0
2026-04-18T19:52:42.736,1,29,168442,135939,75.0
2026-04-18T19:52:42.756,1,30,168442,135939,75.0
2026-04-18T19:52:42.777,1,31,168442,135939,75.0
2026-04-18T19:52:42.797,1,32,168442,135939,75.0
2026-04-18T19:52:42.816,1,33,168613,136117,75.0
2026-04-18T19:52:42.836,1,34,168613,136117,75.0
2026-04-18T19:52:42.857,1,35,168613,136117,75.0
2026-04-18T19:52:42.877,1,36,168613,136117,75.0
2026-04-18T19:52:42.896,1,37,168139,135119,75.0
2026-04-18T19:52:42.916,1,38,168139,135119,75.0
2026-04-18T19:52:42.937,1,39,168139,135119,75.0
2026-04-18T19:52:42.956,1,40,168139,135119,75.0
2026-04-18T19:52:42.976,1,41,167638,134159,75.0
2026-04-18T19:52:42.996,1,42,167638,134159,75.0
2026-04-18T19:52:43.016,1,43,167638,134159,75.0
2026-04-18T19:52:43.036,1,44,167638,134159,75.0
2026-04-18T19:52:43.056,1,45,167331,133519,75.0
2026-04-18T19:52:43.076,1,46,167331,133519,75.0
2026-04-18T19:52:43.096,1,47,167331,133519,75.0
2026-04-18T19:52:43.116,1,48,167331,133519,75.0
2026-04-18T19:52:43.136,1,49,167652,134012,75.0
2026-04-18T19:52:43.156,1,50,167652,134012,75.0
2026-04-18T19:52:43.176,1,51,167652,134012,75.0
2026-04-18T19:52:43.196,1,52,167652,134012,75.0
2026-04-18T19:52:43.216,1,53,167958,134572,75.0
2026-04-18T19:52:43.236,1,54,167958,134572,75.0
2026-04-18T19:52:43.256,1,55,167958,134572,75.0
2026-04-18T19:52:43.276,1,56,167958,134572,75.0
2026-04-18T19:52:43.296,1,57,168117,134918,75.0
2026-04-18T19:52:43.316,1,58,168117,134918,75.0
2026-04-18T19:52:43.336,1,59,168117,134918,75.0
2026-04-18T19:52:43.356,1,60,168117,134918,75.0
2026-04-18T19:52:43.376,1,61,168431,135564,75.0
2026-04-18T19:52:43.396,1,62,168431,135564,75.0
2026-04-18T19:52:43.416,1,63,168431,135564,75.0
2026-04-18T19:52:43.436,1,64,168431,135564,75.0
2026-04-18T19:52:43.456,1,65,168194,135272,75.0
2026-04-18T19:52:43.475,1,66,168194,135272,75.0
2026-04-18T19:52:43.495,1,67,168194,135272,75.0
2026-04-18T19:52:43.515,1,68,168194,135272,75.0
2026-04-18T19:52:43.535,1,69,167954,134796,75.0
2026-04-18T19:52:43.555,1,70,167954,134796,75.0
2026-04-18T19:52:43.576,1,71,167954,134796,75.0
2026-04-18T19:52:43.596,1,72,167954,134796,75.0
2026-04-18T19:52:43.616,1,73,168266,135364,75.0
2026-04-18T19:52:43.635,1,74,168266,135364,75.0
2026-04-18T19:52:43.655,1,75,168266,135364,75.0
2026-04-18T19:52:43.676,1,76,168266,135364,75.0
2026-04-18T19:52:43.695,1,77,168288,135378,75.0
2026-04-18T19:52:43.715,1,78,168288,135378,75.0
2026-04-18T19:52:43.735,1,79,168288,135378,75.0
2026-04-18T19:52:43.755,1,80,168288,135378,75.0
2026-04-18T19:52:43.776,1,81,168977,136738,75.0
2026-04-18T19:52:43.796,1,82,168977,136738,75.0
2026-04-18T19:52:43.815,1,83,168977,136738,75.0
2026-04-18T19:52:43.835,1,84,168977,136738,75.0
2026-04-18T19:52:43.856,1,85,169400,137679,75.0
2026-04-18T19:52:43.875,1,86,169400,137679,75.0
2026-04-18T19:52:43.895,1,87,169400,137679,75.0
2026-04-18T19:52:43.916,1,88,169400,137679,75.0
2026-04-18T19:52:43.936,1,89,169377,137703,75.0
2026-04-18T19:52:43.955,1,90,169377,137703,75.0
2026-04-18T19:52:43.975,1,91,169377,137703,75.0
2026-04-18T19:52:43.995,1,92,169377,137703,75.0
2026-04-18T19:52:44.015,1,93,169557,137991,75.0
2026-04-18T19:52:44.035,1,94,169557,137991,75.0
2026-04-18T19:52:44.055,1,95,169557,137991,75.0
2026-04-18T19:52:44.075,1,96,169557,137991,75.0
2026-04-18T19:52:44.095,1,97,169780,138488,75.0
2026-04-18T19:52:44.115,1,98,169780,138488,75.0
2026-04-18T19:52:44.135,1,99,169780,138488,75.0
2026-04-18T19:52:44.155,1,100,169780,138488,75.0
2026-04-18T19:52:44.175,1,101,169663,138297,75.0
2026-04-18T19:52:44.195,1,102,169663,138297,75.0
2026-04-18T19:52:44.215,1,103,169663,138297,75.0
2026-04-18T19:52:44.235,1,104,169663,138297,75.0
2026-04-18T19:52:44.255,1,105,169946,139022,75.0
2026-04-18T19:52:44.275,1,106,169946,139022,75.0
2026-04-18T19:52:44.295,1,107,169946,139022,75.0
2026-04-18T19:52:44.315,1,108,169946,139022,75.0
2026-04-18T19:52:44.335,1,109,169795,138899,75.0
2026-04-18T19:52:44.354,1,110,169795,138899,75.0
2026-04-18T19:52:44.375,1,111,169795,138899,75.0
2026-04-18T19:52:44.395,1,112,169795,138899,75.0
2026-04-18T19:52:44.415,1,113,169428,138060,75.0
2026-04-18T19:52:44.435,1,114,169428,138060,75.0
2026-04-18T19:52:44.455,1,115,169428,138060,75.0
2026-04-18T19:52:44.475,1,116,169428,138060,75.0
2026-04-18T19:52:44.495,1,117,169744,138492,75.0
2026-04-18T19:52:44.515,1,118,169744,138492,75.0
2026-04-18T19:52:44.534,1,119,169744,138492,75.0
2026-04-18T19:52:44.554,1,120,169744,138492,75.0
2026-04-18T19:52:44.574,1,121,170194,139407,75.0
2026-04-18T19:52:44.594,1,122,170194,139407,75.0
2026-04-18T19:52:44.614,1,123,170194,139407,75.0
2026-04-18T19:52:44.634,1,124,170194,139407,75.0
2026-04-18T19:52:44.655,1,125,170339,139736,75.0
2026-04-18T19:52:44.674,1,126,170339,139736,75.0
2026-04-18T19:52:44.694,1,127,170339,139736,75.0
2026-04-18T19:52:44.714,1,128,170339,139736,75.0
2026-04-18T19:52:44.734,1,129,170841,140968,75.0
2026-04-18T19:52:44.754,1,130,170841,140968,75.0
2026-04-18T19:52:44.774,1,131,170841,140968,75.0
2026-04-18T19:52:44.794,1,132,170841,140968,75.0
2026-04-18T19:52:44.814,1,133,170906,141295,75.0
2026-04-18T19:52:44.834,1,134,170906,141295,75.0
2026-04-18T19:52:44.854,1,135,170906,141295,75.0
2026-04-18T19:52:44.874,1,136,170906,141295,75.0
2026-04-18T19:52:44.894,1,137,170418,140335,75.0
2026-04-18T19:52:44.914,1,138,170418,140335,75.0
2026-04-18T19:52:44.934,1,139,170418,140335,75.0
2026-04-18T19:52:44.954,1,140,170418,140335,75.0
2026-04-18T19:52:44.974,1,141,170135,139696,75.0
2026-04-18T19:52:44.994,1,142,170135,139696,75.0
2026-04-18T19:52:45.014,1,143,170135,139696,75.0
2026-04-18T19:52:45.034,1,144,170135,139696,75.0
2026-04-18T19:52:45.054,1,145,170037,139479,75.0
2026-04-18T19:52:45.074,1,146,170037,139479,75.0
2026-04-18T19:52:45.094,1,147,170037,139479,75.0
2026-04-18T19:52:45.114,1,148,170037,139479,75.0
2026-04-18T19:52:45.134,1,149,169932,139311,75.0
2026-04-18T19:52:45.154,1,150,169932,139311,75.0
2026-04-18T19:52:45.174,1,151,169932,139311,75.0
2026-04-18T19:52:45.194,1,152,169932,139311,75.0
2026-04-18T19:52:45.213,1,153,169970,139410,75.0
2026-04-18T19:52:45.234,1,154,169970,139410,75.0
2026-04-18T19:52:45.254,1,155,169970,139410,75.0
2026-04-18T19:52:45.274,1,156,169970,139410,75.0
2026-04-18T19:52:45.294,1,157,170013,139533,75.0
2026-04-18T19:52:45.314,1,158,170013,139533,75.0
2026-04-18T19:52:45.334,1,159,170013,139533,75.0
2026-04-18T19:52:45.354,1,160,170013,139533,75.0
2026-04-18T19:52:45.374,1,161,170086,139746,75.0
2026-04-18T19:52:45.393,1,162,170086,139746,75.0
2026-04-18T19:52:45.413,1,163,170086,139746,75.0
2026-04-18T19:52:45.434,1,164,170086,139746,75.0
2026-04-18T19:52:45.453,1,165,170243,140151,75.0
2026-04-18T19:52:45.473,1,166,170243,140151,75.0
2026-04-18T19:52:45.493,1,167,170243,140151,75.0
2026-04-18T19:52:45.513,1,168,170243,140151,75.0
2026-04-18T19:52:45.533,1,169,170250,140247,75.0
2026-04-18T19:52:45.553,1,170,170250,140247,75.0
2026-04-18T19:52:45.573,1,171,170250,140247,75.0
2026-04-18T19:52:45.593,1,172,170250,140247,75.0
2026-04-18T19:52:45.613,1,173,170085,140042,75.0
2026-04-18T19:52:45.633,1,174,170085,140042,75.0
2026-04-18T19:52:45.653,1,175,170085,140042,75.0
2026-04-18T19:52:45.673,1,176,170085,140042,75.0
2026-04-18T19:52:45.693,1,177,169777,139564,75.0
2026-04-18T19:52:45.713,1,178,169777,139564,75.0
2026-04-18T19:52:45.733,1,179,169777,139564,75.0
2026-04-18T19:52:45.753,1,180,169777,139564,75.0
2026-04-18T19:52:45.773,1,181,169418,138852,75.0
2026-04-18T19:52:45.793,1,182,169418,138852,75.0
2026-04-18T19:52:45.813,1,183,169418,138852,75.0
2026-04-18T19:52:45.833,1,184,169418,138852,75.0
2026-04-18T19:52:45.853,1,185,169274,138524,75.0
2026-04-18T19:52:45.873,1,186,169274,138524,75.0
2026-04-18T19:52:45.893,1,187,169274,138524,75.0
2026-04-18T19:52:45.913,1,188,169274,138524,75.0
2026-04-18T19:52:45.933,1,189,169446,138748,75.0
2026-04-18T19:52:45.953,1,190,169446,138748,75.0
2026-04-18T19:52:45.973,1,191,169446,138748,75.0
2026-04-18T19:52:45.993,1,192,169446,138748,75.0
2026-04-18T19:52:46.013,1,193,169521,138851,75.0
2026-04-18T19:52:46.033,1,194,169521,138851,75.0
2026-04-18T19:52:46.053,1,195,169521,138851,75.0
2026-04-18T19:52:46.073,1,196,169521,138851,75.0
2026-04-18T19:52:46.093,1,197,169725,139321,75.0
2026-04-18T19:52:46.113,1,198,169725,139321,75.0
2026-04-18T19:52:46.133,1,199,169725,139321,75.0
2026-04-18T19:52:46.153,1,200,169725,139321,75.0
2026-04-18T19:52:46.173,1,201,169383,138654,75.0
2026-04-18T19:52:46.193,1,202,169383,138654,75.0
2026-04-18T19:52:46.212,1,203,169383,138654,75.0
2026-04-18T19:52:46.232,1,204,169383,138654,75.0
2026-04-18T19:52:46.253,1,205,169025,137939,75.0
2026-04-18T19:52:46.273,1,206,169025,137939,75.0
2026-04-18T19:52:46.293,1,207,169025,137939,75.0
2026-04-18T19:52:46.313,1,208,169025,137939,75.0
2026-04-18T19:52:46.333,1,209,168580,137084,75.0
2026-04-18T19:52:46.353,1,210,168580,137084,75.0
2026-04-18T19:52:46.373,1,211,168580,137084,75.0
2026-04-18T19:52:46.393,1,212,168580,137084,75.0
2026-04-18T19:52:46.413,1,213,168302,136536,75.0
2026-04-18T19:52:46.433,1,214,168302,136536,75.0
2026-04-18T19:52:46.453,1,215,168302,136536,75.0
2026-04-18T19:52:46.473,1,216,168302,136536,75.0
2026-04-18T19:52:46.493,1,217,168135,136260,75.0
2026-04-18T19:52:46.513,1,218,168135,136260,75.0
2026-04-18T19:52:46.533,1,219,168135,136260,75.0
2026-04-18T19:52:46.553,1,220,168135,136260,75.0
2026-04-18T19:52:46.573,1,221,167875,135841,75.0
2026-04-18T19:52:46.593,1,222,167875,135841,75.0
2026-04-18T19:52:46.613,1,223,167875,135841,75.0
2026-04-18T19:52:46.632,1,224,167875,135841,75.0
2026-04-18T19:52:46.653,1,225,167579,135310,75.0
2026-04-18T19:52:46.673,1,226,167579,135310,75.0
2026-04-18T19:52:46.693,1,227,167579,135310,75.0
2026-04-18T19:52:46.713,1,228,167579,135310,75.0
2026-04-18T19:52:46.732,1,229,167552,135178,75.0
2026-04-18T19:52:46.753,1,230,167552,135178,75.0
2026-04-18T19:52:46.773,1,231,167552,135178,75.0
2026-04-18T19:52:46.792,1,232,167552,135178,75.0
2026-04-18T19:52:46.812,1,233,167955,136008,75.0
2026-04-18T19:52:46.832,1,234,167955,136008,75.0
2026-04-18T19:52:46.852,1,235,167955,136008,75.0
2026-04-18T19:52:46.872,1,236,167955,136008,75.0
2026-04-18T19:52:46.892,1,237,168622,137416,75.0
2026-04-18T19:52:46.912,1,238,168622,137416,75.0
2026-04-18T19:52:46.932,1,239,168622,137416,75.0
2026-04-18T19:52:46.952,1,240,168622,137416,75.0
2026-04-18T19:52:46.972,1,241,169492,139076,75.0
2026-04-18T19:52:46.992,1,242,169492,139076,75.0
2026-04-18T19:52:47.012,1,243,169492,139076,75.0
2026-04-18T19:52:47.032,1,244,169492,139076,75.0
2026-04-18T19:52:47.052,1,245,170440,141073,75.0
2026-04-18T19:52:47.072,1,246,170440,141073,75.0
2026-04-18T19:52:47.092,1,247,170440,141073,75.0
2026-04-18T19:52:47.112,1,248,170440,141073,75.0
2026-04-18T19:52:47.132,1,249,170944,142199,75.0
2026-04-18T19:52:47.152,1,250,170944,142199,75.0
2026-04-18T19:52:47.172,1,251,170944,142199,75.0
2026-04-18T19:52:47.192,1,252,170944,142199,75.0
2026-04-18T19:52:47.212,1,253,171194,142935,75.0
2026-04-18T19:52:47.232,1,254,171194,142935,75.0
2026-04-18T19:52:47.251,1,255,171194,142935,75.0
2026-04-18T19:52:47.271,1,256,171194,142935,75.0
2026-04-18T19:52:47.292,1,257,171145,143001,75.0
2026-04-18T19:52:47.312,1,258,171145,143001,75.0
2026-04-18T19:52:47.332,1,259,171145,143001,75.0
2026-04-18T19:52:47.351,1,260,171145,143001,75.0
2026-04-18T19:52:47.372,1,261,171353,143427,75.0
2026-04-18T19:52:47.392,1,262,171353,143427,75.0
2026-04-18T19:52:47.412,1,263,171353,143427,75.0
2026-04-18T19:52:47.432,1,264,171353,143427,75.0
2026-04-18T19:52:47.452,1,265,171932,144716,75.0
2026-04-18T19:52:47.472,1,266,171932,144716,75.0
2026-04-18T19:52:47.492,1,267,171932,144716,75.0
2026-04-18T19:52:47.511,1,268,171932,144716,75.0
2026-04-18T19:52:47.531,1,269,172169,145126,75.0
2026-04-18T19:52:47.552,1,270,172169,145126,75.0
2026-04-18T19:52:47.572,1,271,172169,145126,75.0
2026-04-18T19:52:47.592,1,272,172169,145126,75.0
2026-04-18T19:52:47.611,1,273,172145,145125,75.0
2026-04-18T19:52:47.632,1,274,172145,145125,75.0
2026-04-18T19:52:47.651,1,275,172145,145125,75.0
2026-04-18T19:52:47.671,1,276,172145,145125,75.0
2026-04-18T19:52:47.691,1,277,171943,145202,75.0
2026-04-18T19:52:47.711,1,278,171943,145202,75.0
2026-04-18T19:52:47.731,1,279,171943,145202,75.0
2026-04-18T19:52:47.751,1,280,171943,145202,75.0
2026-04-18T19:52:47.772,1,281,170812,142821,75.0
2026-04-18T19:52:47.792,1,282,170812,142821,75.0
2026-04-18T19:52:47.811,1,283,170812,142821,75.0
2026-04-18T19:52:47.831,1,284,170812,142821,75.0
2026-04-18T19:52:47.852,1,285,169592,140153,75.0
2026-04-18T19:52:47.871,1,286,169592,140153,75.0
2026-04-18T19:52:47.890,1,287,169592,140153,75.0
2026-04-18T19:52:47.910,1,288,169592,140153,75.0
2026-04-18T19:52:47.931,1,289,168188,137259,75.0
2026-04-18T19:52:47.951,1,290,168188,137259,75.0
2026-04-18T19:52:47.971,1,291,168188,137259,75.0
2026-04-18T19:52:47.991,1,292,168188,137259,75.0
2026-04-18T19:52:48.011,1,293,168201,137123,75.0
2026-04-18T19:52:48.031,1,294,168201,137123,75.0
2026-04-18T19:52:48.051,1,295,168201,137123,75.0
2026-04-18T19:52:48.071,1,296,168201,137123,75.0
2026-04-18T19:52:48.091,1,297,168341,137371,75.0
2026-04-18T19:52:48.111,1,298,168341,137371,75.0
2026-04-18T19:52:48.131,1,299,168341,137371,75.0
2026-04-18T19:52:48.151,1,300,168341,137371,75.0
2026-04-18T19:52:48.171,1,301,168367,137254,75.0
2026-04-18T19:52:48.191,1,302,168367,137254,75.0
2026-04-18T19:52:48.211,1,303,168367,137254,75.0
2026-04-18T19:52:48.231,1,304,168367,137254,75.0
2026-04-18T19:52:48.250,1,305,168849,138158,75.0
2026-04-18T19:52:48.271,1,306,168849,138158,75.0
2026-04-18T19:52:48.290,1,307,168849,138158,75.0
2026-04-18T19:52:48.310,1,308,168849,138158,75.0
2026-04-18T19:52:48.331,1,309,169181,138877,75.0
2026-04-18T19:52:48.351,1,310,169181,138877,75.0
2026-04-18T19:52:48.371,1,311,169181,138877,75.0
2026-04-18T19:52:48.391,1,312,169181,138877,75.0
2026-04-18T19:52:48.411,1,313,169414,139423,75.0
2026-04-18T19:52:48.431,1,314,169414,139423,75.0
2026-04-18T19:52:48.451,1,315,169414,139423,75.0
2026-04-18T19:52:48.470,1,316,169414,139423,75.0
2026-04-18T19:52:48.490,1,317,169233,139142,75.0
2026-04-18T19:52:48.510,1,318,169233,139142,75.0
2026-04-18T19:52:48.531,1,319,169233,139142,75.0
2026-04-18T19:52:48.550,1,320,169233,139142,75.0
2026-04-18T19:52:48.570,1,321,169085,138933,75.0
2026-04-18T19:52:48.591,1,322,169085,138933,75.0
2026-04-18T19:52:48.610,1,323,169085,138933,75.0
2026-04-18T19:52:48.631,1,324,169085,138933,75.0
2026-04-18T19:52:48.650,1,325,169159,139024,75.0
2026-04-18T19:52:48.670,1,326,169159,139024,75.0
2026-04-18T19:52:48.690,1,327,169159,139024,75.0
2026-04-18T19:52:48.710,1,328,169159,139024,75.0
2026-04-18T19:52:48.730,1,329,168966,138696,75.0
2026-04-18T19:52:48.750,1,330,168966,138696,75.0
2026-04-18T19:52:48.770,1,331,168966,138696,75.0
2026-04-18T19:52:48.790,1,332,168966,138696,75.0
2026-04-18T19:52:48.810,1,333,169013,138854,75.0
2026-04-18T19:52:48.830,1,334,169013,138854,75.0
2026-04-18T19:52:48.850,1,335,169013,138854,75.0
2026-04-18T19:52:48.870,1,336,169013,138854,75.0
2026-04-18T19:52:48.890,1,337,168763,138355,75.0
2026-04-18T19:52:48.909,1,338,168763,138355,75.0
2026-04-18T19:52:48.929,1,339,168763,138355,75.0
2026-04-18T19:52:48.950,1,340,168763,138355,75.0
2026-04-18T19:52:48.969,1,341,168580,137969,75.0
2026-04-18T19:52:48.989,1,342,168580,137969,75.0
2026-04-18T19:52:49.009,1,343,168580,137969,75.0
2026-04-18T19:52:49.030,1,344,168580,137969,75.0
2026-04-18T19:52:49.050,1,345,168699,138143,75.0
2026-04-18T19:52:49.069,1,346,168699,138143,75.0
2026-04-18T19:52:49.089,1,347,168699,138143,75.0
2026-04-18T19:52:49.110,1,348,168699,138143,75.0
2026-04-18T19:52:49.130,1,349,169751,140223,75.0
2026-04-18T19:52:49.149,1,350,169751,140223,75.0
2026-04-18T19:52:49.170,1,351,169751,140223,75.0
2026-04-18T19:52:49.190,1,352,169751,140223,75.0
2026-04-18T19:52:49.210,1,353,169931,140498,75.0
2026-04-18T19:52:49.230,1,354,169931,140498,75.0
2026-04-18T19:52:49.250,1,355,169931,140498,75.0
2026-04-18T19:52:49.270,1,356,169931,140498,75.0
2026-04-18T19:52:49.289,1,357,170279,141422,75.0
2026-04-18T19:52:49.310,1,358,170279,141422,75.0
2026-04-18T19:52:49.329,1,359,170279,141422,75.0
2026-04-18T19:52:49.349,1,360,170279,141422,75.0
2026-04-18T19:52:49.369,1,361,170054,141032,75.0
2026-04-18T19:52:49.390,1,362,170054,141032,75.0
2026-04-18T19:52:49.410,1,363,170054,141032,75.0
2026-04-18T19:52:49.429,1,364,170054,141032,75.0
2026-04-18T19:52:49.449,1,365,169961,140928,75.0
2026-04-18T19:52:49.470,1,366,169961,140928,75.0
2026-04-18T19:52:49.490,1,367,169961,140928,75.0
2026-04-18T19:52:49.509,1,368,169961,140928,75.0
2026-04-18T19:52:49.530,1,369,169624,140247,75.0
2026-04-18T19:52:49.549,1,370,169624,140247,75.0
2026-04-18T19:52:49.570,1,371,169624,140247,75.0
2026-04-18T19:52:49.589,1,372,169624,140247,75.0
2026-04-18T19:52:49.609,1,373,169579,140242,75.0
2026-04-18T19:52:49.629,1,374,169579,140242,75.0
2026-04-18T19:52:49.649,1,375,169579,140242,75.0
2026-04-18T19:52:49.669,1,376,169579,140242,75.0
2026-04-18T19:52:49.689,1,377,169604,140313,75.0
2026-04-18T19:52:49.709,1,378,169604,140313,75.0
2026-04-18T19:52:49.729,1,379,169604,140313,75.0
2026-04-18T19:52:49.749,1,380,169604,140313,75.0
2026-04-18T19:52:49.769,1,381,169747,140494,75.0
2026-04-18T19:52:49.789,1,382,169747,140494,75.0
2026-04-18T19:52:49.809,1,383,169747,140494,75.0
2026-04-18T19:52:49.829,1,384,169747,140494,75.0
2026-04-18T19:52:49.849,1,385,169875,140766,75.0
2026-04-18T19:52:49.869,1,386,169875,140766,75.0
2026-04-18T19:52:49.889,1,387,169875,140766,75.0
2026-04-18T19:52:49.909,1,388,169875,140766,75.0
2026-04-18T19:52:49.928,1,389,170044,141270,75.0
2026-04-18T19:52:49.949,1,390,170044,141270,75.0
2026-04-18T19:52:49.969,1,391,170044,141270,75.0
2026-04-18T19:52:49.989,1,392,170044,141270,75.0
2026-04-18T19:52:50.009,1,393,169514,140361,75.0
2026-04-18T19:52:50.029,1,394,169514,140361,75.0
2026-04-18T19:52:50.049,1,395,169514,140361,75.0
2026-04-18T19:52:50.069,1,396,169514,140361,75.0
2026-04-18T19:52:50.089,1,397,167410,136410,75.0
2026-04-18T19:52:50.108,1,398,167410,136410,75.0
2026-04-18T19:52:50.128,1,399,167410,136410,75.0
2026-04-18T19:52:50.148,1,400,167410,136410,75.0
2026-04-18T19:52:50.168,1,401,165408,132703,75.0
2026-04-18T19:52:50.188,1,402,165408,132703,75.0
2026-04-18T19:52:50.209,1,403,165408,132703,75.0
2026-04-18T19:52:50.229,1,404,165408,132703,75.0
2026-04-18T19:52:50.249,1,405,164080,131025,75.0
2026-04-18T19:52:50.268,1,406,164080,131025,75.0
2026-04-18T19:52:50.288,1,407,164080,131025,75.0
2026-04-18T19:52:50.309,1,408,164080,131025,75.0
2026-04-18T19:52:50.329,1,409,163522,130049,75.0
2026-04-18T19:52:50.348,1,410,163522,130049,75.0
2026-04-18T19:52:50.368,1,411,163522,130049,75.0
2026-04-18T19:52:50.388,1,412,163522,130049,75.0
2026-04-18T19:52:50.408,1,413,163070,129474,75.0
2026-04-18T19:52:50.429,1,414,163070,129474,75.0
2026-04-18T19:52:50.448,1,415,163070,129474,75.0
2026-04-18T19:52:50.469,1,416,163070,129474,75.0
2026-04-18T19:52:50.488,1,417,162271,128519,75.0
2026-04-18T19:52:50.508,1,418,162271,128519,75.0
2026-04-18T19:52:50.528,1,419,162271,128519,75.0
2026-04-18T19:52:50.549,1,420,162271,128519,75.0
2026-04-18T19:52:50.568,1,421,161780,127947,75.0
2026-04-18T19:52:50.588,1,422,161780,127947,75.0
2026-04-18T19:52:50.608,1,423,161780,127947,75.0
2026-04-18T19:52:50.628,1,424,161780,127947,75.0
2026-04-18T19:52:50.648,1,425,161448,127540,75.0
2026-04-18T19:52:50.668,1,426,161448,127540,75.0
2026-04-18T19:52:50.688,1,427,161448,127540,75.0
2026-04-18T19:52:50.708,1,428,161448,127540,75.0
2026-04-18T19:52:50.728,1,429,161250,127271,75.0
2026-04-18T19:52:50.748,1,430,161250,127271,75.0
2026-04-18T19:52:50.768,1,431,161250,127271,75.0
2026-04-18T19:52:50.788,1,432,161250,127271,75.0
2026-04-18T19:52:50.808,1,433,161061,126992,75.0
2026-04-18T19:52:50.828,1,434,161061,126992,75.0
2026-04-18T19:52:50.848,1,435,161061,126992,75.0
2026-04-18T19:52:50.868,1,436,161061,126992,75.0
2026-04-18T19:52:50.888,1,437,160879,126727,75.0
2026-04-18T19:52:50.908,1,438,160879,126727,75.0
2026-04-18T19:52:50.928,1,439,160879,126727,75.0
2026-04-18T19:52:50.948,1,440,160879,126727,75.0
2026-04-18T19:52:50.967,1,441,160826,126685,75.0
2026-04-18T19:52:50.987,1,442,160826,126685,75.0
2026-04-18T19:52:51.007,1,443,160826,126685,75.0
2026-04-18T19:52:51.028,1,444,160826,126685,75.0
2026-04-18T19:52:51.048,1,445,160807,126686,75.0
2026-04-18T19:52:51.068,1,446,160807,126686,75.0
2026-04-18T19:52:51.088,1,447,160807,126686,75.0
2026-04-18T19:52:51.108,1,448,160807,126686,75.0
2026-04-18T19:52:51.127,1,449,160800,126792,75.0
2026-04-18T19:52:51.148,1,450,160800,126792,75.0
2026-04-18T19:52:51.168,1,451,160800,126792,75.0
2026-04-18T19:52:51.188,1,452,160800,126792,75.0
2026-04-18T19:52:51.207,1,453,160701,126816,75.0
2026-04-18T19:52:51.228,1,454,160701,126816,75.0
2026-04-18T19:52:51.248,1,455,160701,126816,75.0
2026-04-18T19:52:51.267,1,456,160701,126816,75.0
2026-04-18T19:52:51.287,1,457,160578,126740,75.0
2026-04-18T19:52:51.307,1,458,160578,126740,75.0
2026-04-18T19:52:51.328,1,459,160578,126740,75.0
2026-04-18T19:52:51.348,1,460,160578,126740,75.0
2026-04-18T19:52:51.368,1,461,160411,126625,75.0
2026-04-18T19:52:51.387,1,462,160411,126625,75.0
2026-04-18T19:52:51.407,1,463,160411,126625,75.0
2026-04-18T19:52:51.427,1,464,160411,126625,75.0
2026-04-18T19:52:51.447,1,465,160417,126696,75.0
2026-04-18T19:52:51.468,1,466,160417,126696,75.0
2026-04-18T19:52:51.487,1,467,160417,126696,75.0
2026-04-18T19:52:51.507,1,468,160417,126696,75.0
2026-04-18T19:52:51.528,1,469,160292,126619,75.0
2026-04-18T19:52:51.547,1,470,160292,126619,75.0
2026-04-18T19:52:51.567,1,471,160292,126619,75.0
2026-04-18T19:52:51.587,1,472,160292,126619,75.0
2026-04-18T19:52:51.607,1,473,160317,126684,75.0
2026-04-18T19:52:51.627,1,474,160317,126684,75.0
2026-04-18T19:52:51.647,1,475,160317,126684,75.0
2026-04-18T19:52:51.667,1,476,160317,126684,75.0
2026-04-18T19:52:51.687,1,477,160364,126688,75.0
2026-04-18T19:52:51.707,1,478,160364,126688,75.0
2026-04-18T19:52:51.727,1,479,160364,126688,75.0
2026-04-18T19:52:51.747,1,480,160364,126688,75.0
2026-04-18T19:52:51.767,1,481,160428,126692,75.0
2026-04-18T19:52:51.787,1,482,160428,126692,75.0
2026-04-18T19:52:51.807,1,483,160428,126692,75.0
2026-04-18T19:52:51.827,1,484,160428,126692,75.0
2026-04-18T19:52:51.847,1,485,160610,126899,75.0
2026-04-18T19:52:51.867,1,486,160610,126899,75.0
2026-04-18T19:52:51.887,1,487,160610,126899,75.0
2026-04-18T19:52:51.907,1,488,160610,126899,75.0
2026-04-18T19:52:51.927,1,489,160725,126953,75.0
2026-04-18T19:52:51.947,1,490,160725,126953,75.0
2026-04-18T19:52:51.967,1,491,160725,126953,75.0
2026-04-18T19:52:51.987,1,492,160725,126953,75.0
2026-04-18T19:52:52.007,1,493,160826,127031,75.0
2026-04-18T19:52:52.027,1,494,160826,127031,75.0
2026-04-18T19:52:52.046,1,495,160826,127031,75.0
2026-04-18T19:52:52.067,1,496,160826,127031,75.0
2026-04-18T19:52:52.087,1,497,160913,127057,75.0
2026-04-18T19:52:52.107,1,498,160913,127057,75.0
2026-04-18T19:52:52.127,1,499,160913,127057,75.0
2026-04-18T19:52:52.147,1,500,160913,127057,75.0
2026-04-18T19:52:52.167,1,501,161000,127174,75.0
2026-04-18T19:52:56.102,2,0,172928,146406,85.0
2026-04-18T19:52:56.122,2,1,172928,146406,85.0
2026-04-18T19:52:56.142,2,2,172928,146406,85.0
2026-04-18T19:52:56.162,2,3,172645,145845,85.0
2026-04-18T19:52:56.182,2,4,172645,145845,85.0
2026-04-18T19:52:56.202,2,5,172645,145845,85.0
2026-04-18T19:52:56.222,2,6,172645,145845,85.0
2026-04-18T19:52:56.242,2,7,171120,142812,85.0
2026-04-18T19:52:56.262,2,8,171120,142812,85.0
2026-04-18T19:52:56.281,2,9,171120,142812,85.0
2026-04-18T19:52:56.302,2,10,171120,142812,85.0
2026-04-18T19:52:56.322,2,11,170342,141396,85.0
2026-04-18T19:52:56.342,2,12,170342,141396,85.0
2026-04-18T19:52:56.362,2,13,170342,141396,85.0
2026-04-18T19:52:56.382,2,14,170342,141396,85.0
2026-04-18T19:52:56.402,2,15,170269,141376,85.0
2026-04-18T19:52:56.421,2,16,170269,141376,85.0
2026-04-18T19:52:56.442,2,17,170269,141376,85.0
2026-04-18T19:52:56.462,2,18,170269,141376,85.0
2026-04-18T19:52:56.482,2,19,170105,141159,85.0
2026-04-18T19:52:56.502,2,20,170105,141159,85.0
2026-04-18T19:52:56.521,2,21,170105,141159,85.0
2026-04-18T19:52:56.541,2,22,170105,141159,85.0
2026-04-18T19:52:56.562,2,23,169065,139252,85.0
2026-04-18T19:52:56.582,2,24,169065,139252,85.0
2026-04-18T19:52:56.602,2,25,169065,139252,85.0
2026-04-18T19:52:56.622,2,26,169065,139252,85.0
2026-04-18T19:52:56.641,2,27,167736,136598,85.0
2026-04-18T19:52:56.661,2,28,167736,136598,85.0
2026-04-18T19:52:56.682,2,29,167736,136598,85.0
2026-04-18T19:52:56.701,2,30,167736,136598,85.0
2026-04-18T19:52:56.721,2,31,166145,133689,85.0
2026-04-18T19:52:56.741,2,32,166145,133689,85.0
2026-04-18T19:52:56.761,2,33,166145,133689,85.0
2026-04-18T19:52:56.781,2,34,166145,133689,85.0
2026-04-18T19:52:56.801,2,35,165244,132081,85.0
2026-04-18T19:52:56.821,2,36,165244,132081,85.0
2026-04-18T19:52:56.841,2,37,165244,132081,85.0
2026-04-18T19:52:56.861,2,38,165244,132081,85.0
2026-04-18T19:52:56.881,2,39,164371,130976,85.0
2026-04-18T19:52:56.901,2,40,164371,130976,85.0
2026-04-18T19:52:56.921,2,41,164371,130976,85.0
2026-04-18T19:52:56.941,2,42,164371,130976,85.0
2026-04-18T19:52:56.961,2,43,163808,130270,85.0
2026-04-18T19:52:56.981,2,44,163808,130270,85.0
2026-04-18T19:52:57.001,2,45,163808,130270,85.0
2026-04-18T19:52:57.021,2,46,163808,130270,85.0
2026-04-18T19:52:57.041,2,47,163744,130264,85.0
2026-04-18T19:52:57.061,2,48,163744,130264,85.0
2026-04-18T19:52:57.081,2,49,163744,130264,85.0
2026-04-18T19:52:57.101,2,50,163744,130264,85.0
2026-04-18T19:52:57.121,2,51,163019,129452,85.0
2026-04-18T19:52:57.141,2,52,163019,129452,85.0
2026-04-18T19:52:57.161,2,53,163019,129452,85.0
2026-04-18T19:52:57.181,2,54,163019,129452,85.0
2026-04-18T19:52:57.201,2,55,162797,129277,85.0
2026-04-18T19:52:57.221,2,56,162797,129277,85.0
2026-04-18T19:52:57.241,2,57,162797,129277,85.0
2026-04-18T19:52:57.261,2,58,162797,129277,85.0
2026-04-18T19:52:57.281,2,59,162390,128839,85.0
2026-04-18T19:52:57.301,2,60,162390,128839,85.0
2026-04-18T19:52:57.321,2,61,162390,128839,85.0
2026-04-18T19:52:57.341,2,62,162390,128839,85.0
2026-04-18T19:52:57.361,2,63,162050,128625,85.0
2026-04-18T19:52:57.381,2,64,162050,128625,85.0
2026-04-18T19:52:57.401,2,65,162050,128625,85.0
2026-04-18T19:52:57.421,2,66,162050,128625,85.0
2026-04-18T19:52:57.440,2,67,161893,128869,85.0
2026-04-18T19:52:57.460,2,68,161893,128869,85.0
2026-04-18T19:52:57.481,2,69,161893,128869,85.0
2026-04-18T19:52:57.501,2,70,161893,128869,85.0
2026-04-18T19:52:57.521,2,71,161512,129071,85.0
2026-04-18T19:52:57.540,2,72,161512,129071,85.0
2026-04-18T19:52:57.560,2,73,161512,129071,85.0
2026-04-18T19:52:57.580,2,74,161512,129071,85.0
2026-04-18T19:52:57.601,2,75,161178,129194,85.0
2026-04-18T19:52:57.621,2,76,161178,129194,85.0
2026-04-18T19:52:57.641,2,77,161178,129194,85.0
2026-04-18T19:52:57.661,2,78,161178,129194,85.0
2026-04-18T19:52:57.680,2,79,161076,129591,85.0
2026-04-18T19:52:57.700,2,80,161076,129591,85.0
2026-04-18T19:52:57.720,2,81,161076,129591,85.0
2026-04-18T19:52:57.740,2,82,161076,129591,85.0
2026-04-18T19:52:57.760,2,83,161119,129744,85.0
2026-04-18T19:52:57.780,2,84,161119,129744,85.0
2026-04-18T19:52:57.800,2,85,161119,129744,85.0
2026-04-18T19:52:57.820,2,86,161119,129744,85.0
2026-04-18T19:52:57.840,2,87,161522,130443,85.0
2026-04-18T19:52:57.860,2,88,161522,130443,85.0
2026-04-18T19:52:57.880,2,89,161522,130443,85.0
2026-04-18T19:52:57.900,2,90,161522,130443,85.0
2026-04-18T19:52:57.920,2,91,161634,130659,85.0
2026-04-18T19:52:57.940,2,92,161634,130659,85.0
2026-04-18T19:52:57.960,2,93,161634,130659,85.0
2026-04-18T19:52:57.980,2,94,161634,130659,85.0
2026-04-18T19:52:58.000,2,95,161993,131351,85.0
2026-04-18T19:52:58.020,2,96,161993,131351,85.0
2026-04-18T19:52:58.041,2,97,161993,131351,85.0
2026-04-18T19:52:58.060,2,98,161993,131351,85.0
2026-04-18T19:52:58.080,2,99,162080,130925,85.0
2026-04-18T19:52:58.100,2,100,162080,130925,85.0
2026-04-18T19:52:58.120,2,101,162080,130925,85.0
2026-04-18T19:52:58.140,2,102,162080,130925,85.0
2026-04-18T19:52:58.159,2,103,161758,129924,85.0
2026-04-18T19:52:58.180,2,104,161758,129924,85.0
2026-04-18T19:52:58.200,2,105,161758,129924,85.0
2026-04-18T19:52:58.219,2,106,161758,129924,85.0
2026-04-18T19:52:58.239,2,107,161574,129327,85.0
2026-04-18T19:52:58.260,2,108,161574,129327,85.0
2026-04-18T19:52:58.280,2,109,161574,129327,85.0
2026-04-18T19:52:58.300,2,110,161574,129327,85.0
2026-04-18T19:52:58.319,2,111,161625,129513,85.0
2026-04-18T19:52:58.339,2,112,161625,129513,85.0
2026-04-18T19:52:58.359,2,113,161625,129513,85.0
2026-04-18T19:52:58.379,2,114,161625,129513,85.0
2026-04-18T19:52:58.399,2,115,161838,130050,85.0
2026-04-18T19:52:58.419,2,116,161838,130050,85.0
2026-04-18T19:52:58.439,2,117,161838,130050,85.0
2026-04-18T19:52:58.459,2,118,161838,130050,85.0
2026-04-18T19:52:58.479,2,119,161855,130128,85.0
2026-04-18T19:52:58.499,2,120,161855,130128,85.0
2026-04-18T19:52:58.519,2,121,161855,130128,85.0
2026-04-18T19:52:58.540,2,122,161855,130128,85.0
2026-04-18T19:52:58.559,2,123,161851,130131,85.0
2026-04-18T19:52:58.579,2,124,161851,130131,85.0
2026-04-18T19:52:58.599,2,125,161851,130131,85.0
2026-04-18T19:52:58.619,2,126,161851,130131,85.0
2026-04-18T19:52:58.639,2,127,161813,130081,85.0
2026-04-18T19:52:58.659,2,128,161813,130081,85.0
2026-04-18T19:52:58.679,2,129,161813,130081,85.0
2026-04-18T19:52:58.699,2,130,161813,130081,85.0
2026-04-18T19:52:58.719,2,131,161851,130277,85.0
2026-04-18T19:52:58.738,2,132,161851,130277,85.0
2026-04-18T19:52:58.759,2,133,161851,130277,85.0
2026-04-18T19:52:58.779,2,134,161851,130277,85.0
2026-04-18T19:52:58.799,2,135,161839,130395,85.0
2026-04-18T19:52:58.819,2,136,161839,130395,85.0
2026-04-18T19:52:58.839,2,137,161839,130395,85.0
2026-04-18T19:52:58.859,2,138,161839,130395,85.0
2026-04-18T19:52:58.879,2,139,161763,130228,85.0
2026-04-18T19:52:58.899,2,140,161763,130228,85.0
2026-04-18T19:52:58.919,2,141,161763,130228,85.0
2026-04-18T19:52:58.938,2,142,161763,130228,85.0
2026-04-18T19:52:58.958,2,143,161776,130275,85.0
2026-04-18T19:52:58.978,2,144,161776,130275,85.0
2026-04-18T19:52:58.998,2,145,161776,130275,85.0
2026-04-18T19:52:59.019,2,146,161776,130275,85.0
2026-04-18T19:52:59.039,2,147,161782,130194,85.0
2026-04-18T19:52:59.059,2,148,161782,130194,85.0
2026-04-18T19:52:59.079,2,149,161782,130194,85.0
2026-04-18T19:52:59.098,2,150,161782,130194,85.0
2026-04-18T19:52:59.118,2,151,161773,130125,85.0
2026-04-18T19:52:59.138,2,152,161773,130125,85.0
2026-04-18T19:52:59.158,2,153,161773,130125,85.0
2026-04-18T19:52:59.178,2,154,161773,130125,85.0
2026-04-18T19:52:59.198,2,155,161879,130266,85.0
2026-04-18T19:52:59.218,2,156,161879,130266,85.0
2026-04-18T19:52:59.238,2,157,161879,130266,85.0
2026-04-18T19:52:59.259,2,158,161879,130266,85.0
2026-04-18T19:52:59.278,2,159,162149,130707,85.0
2026-04-18T19:52:59.299,2,160,162149,130707,85.0
2026-04-18T19:52:59.318,2,161,162149,130707,85.0
2026-04-18T19:52:59.338,2,162,162149,130707,85.0
2026-04-18T19:52:59.358,2,163,162437,131165,85.0
2026-04-18T19:52:59.379,2,164,162437,131165,85.0
2026-04-18T19:52:59.398,2,165,162437,131165,85.0
2026-04-18T19:52:59.419,2,166,162437,131165,85.0
2026-04-18T19:52:59.438,2,167,162929,131910,85.0
2026-04-18T19:52:59.458,2,168,162929,131910,85.0
2026-04-18T19:52:59.478,2,169,162929,131910,85.0
2026-04-18T19:52:59.498,2,170,162929,131910,85.0
2026-04-18T19:52:59.518,2,171,163274,132468,85.0
2026-04-18T19:52:59.539,2,172,163274,132468,85.0
2026-04-18T19:52:59.558,2,173,163274,132468,85.0
2026-04-18T19:52:59.578,2,174,163274,132468,85.0
2026-04-18T19:52:59.598,2,175,163379,132588,85.0
2026-04-18T19:52:59.618,2,176,163379,132588,85.0
2026-04-18T19:52:59.638,2,177,163379,132588,85.0
2026-04-18T19:52:59.658,2,178,163379,132588,85.0
2026-04-18T19:52:59.678,2,179,163466,132786,85.0
2026-04-18T19:52:59.698,2,180,163466,132786,85.0
2026-04-18T19:52:59.718,2,181,163466,132786,85.0
2026-04-18T19:52:59.738,2,182,163466,132786,85.0
2026-04-18T19:52:59.758,2,183,163543,132939,85.0
2026-04-18T19:52:59.778,2,184,163543,132939,85.0
2026-04-18T19:52:59.798,2,185,163543,132939,85.0
2026-04-18T19:52:59.818,2,186,163543,132939,85.0
2026-04-18T19:52:59.838,2,187,163561,132954,85.0
2026-04-18T19:52:59.858,2,188,163561,132954,85.0
2026-04-18T19:52:59.878,2,189,163561,132954,85.0
2026-04-18T19:52:59.898,2,190,163561,132954,85.0
2026-04-18T19:52:59.918,2,191,163511,132766,85.0
2026-04-18T19:52:59.937,2,192,163511,132766,85.0
2026-04-18T19:52:59.958,2,193,163511,132766,85.0
2026-04-18T19:52:59.978,2,194,163511,132766,85.0
2026-04-18T19:52:59.998,2,195,163713,133168,85.0
2026-04-18T19:53:00.017,2,196,163713,133168,85.0
2026-04-18T19:53:00.037,2,197,163713,133168,85.0
2026-04-18T19:53:00.057,2,198,163713,133168,85.0
2026-04-18T19:53:00.077,2,199,163993,133759,85.0
2026-04-18T19:53:00.098,2,200,163993,133759,85.0
2026-04-18T19:53:00.117,2,201,163993,133759,85.0
2026-04-18T19:53:00.138,2,202,163993,133759,85.0
2026-04-18T19:53:00.157,2,203,164448,134438,85.0
2026-04-18T19:53:00.178,2,204,164448,134438,85.0
2026-04-18T19:53:00.197,2,205,164448,134438,85.0
2026-04-18T19:53:00.217,2,206,164448,134438,85.0
2026-04-18T19:53:00.237,2,207,164887,135228,85.0
2026-04-18T19:53:00.257,2,208,164887,135228,85.0
2026-04-18T19:53:00.277,2,209,164887,135228,85.0
2026-04-18T19:53:00.297,2,210,164887,135228,85.0
2026-04-18T19:53:00.317,2,211,165999,136453,85.0
2026-04-18T19:53:00.338,2,212,165999,136453,85.0
2026-04-18T19:53:00.357,2,213,165999,136453,85.0
2026-04-18T19:53:00.377,2,214,165999,136453,85.0
2026-04-18T19:53:00.397,2,215,166029,136448,85.0
2026-04-18T19:53:00.418,2,216,166029,136448,85.0
2026-04-18T19:53:00.438,2,217,166029,136448,85.0
2026-04-18T19:53:00.457,2,218,166029,136448,85.0
2026-04-18T19:53:00.477,2,219,165954,136275,85.0
2026-04-18T19:53:00.497,2,220,165954,136275,85.0
2026-04-18T19:53:00.517,2,221,165954,136275,85.0
2026-04-18T19:53:00.537,2,222,165954,136275,85.0
2026-04-18T19:53:00.557,2,223,165947,136236,85.0
2026-04-18T19:53:00.577,2,224,165947,136236,85.0
2026-04-18T19:53:00.597,2,225,165947,136236,85.0
2026-04-18T19:53:00.617,2,226,165947,136236,85.0
2026-04-18T19:53:00.637,2,227,165907,136053,85.0
2026-04-18T19:53:00.657,2,228,165907,136053,85.0
2026-04-18T19:53:00.677,2,229,165907,136053,85.0
2026-04-18T19:53:00.697,2,230,165907,136053,85.0
2026-04-18T19:53:00.717,2,231,165800,135753,85.0
2026-04-18T19:53:00.736,2,232,165800,135753,85.0
2026-04-18T19:53:00.757,2,233,165800,135753,85.0
2026-04-18T19:53:00.777,2,234,165800,135753,85.0
2026-04-18T19:53:00.797,2,235,165947,135999,85.0
2026-04-18T19:53:00.816,2,236,165947,135999,85.0
2026-04-18T19:53:00.837,2,237,165947,135999,85.0
2026-04-18T19:53:00.856,2,238,165947,135999,85.0
2026-04-18T19:53:00.877,2,239,165805,135726,85.0
2026-04-18T19:53:00.897,2,240,165805,135726,85.0
2026-04-18T19:53:00.916,2,241,165805,135726,85.0
2026-04-18T19:53:00.937,2,242,165805,135726,85.0
2026-04-18T19:53:00.957,2,243,165562,135293,85.0
2026-04-18T19:53:00.977,2,244,165562,135293,85.0
2026-04-18T19:53:00.997,2,245,165562,135293,85.0
2026-04-18T19:53:01.017,2,246,165562,135293,85.0
2026-04-18T19:53:01.036,2,247,165425,135112,85.0
2026-04-18T19:53:01.056,2,248,165425,135112,85.0
2026-04-18T19:53:01.076,2,249,165425,135112,85.0
2026-04-18T19:53:01.097,2,250,165425,135112,85.0
2026-04-18T19:53:01.116,2,251,165008,134448,85.0
2026-04-18T19:53:01.136,2,252,165008,134448,85.0
2026-04-18T19:53:01.156,2,253,165008,134448,85.0
2026-04-18T19:53:01.176,2,254,165008,134448,85.0
2026-04-18T19:53:01.196,2,255,164539,133690,85.0
2026-04-18T19:53:01.216,2,256,164539,133690,85.0
2026-04-18T19:53:01.236,2,257,164539,133690,85.0
2026-04-18T19:53:01.256,2,258,164539,133690,85.0
2026-04-18T19:53:01.276,2,259,164167,133069,85.0
2026-04-18T19:53:01.296,2,260,164167,133069,85.0
2026-04-18T19:53:01.316,2,261,164167,133069,85.0
2026-04-18T19:53:01.336,2,262,164167,133069,85.0
2026-04-18T19:53:01.356,2,263,163974,132752,85.0
2026-04-18T19:53:01.376,2,264,163974,132752,85.0
2026-04-18T19:53:01.396,2,265,163974,132752,85.0
2026-04-18T19:53:01.416,2,266,163974,132752,85.0
2026-04-18T19:53:01.436,2,267,163767,132304,85.0
2026-04-18T19:53:01.456,2,268,163767,132304,85.0
2026-04-18T19:53:01.476,2,269,163767,132304,85.0
2026-04-18T19:53:01.496,2,270,163767,132304,85.0
2026-04-18T19:53:01.516,2,271,163944,132583,85.0
2026-04-18T19:53:01.536,2,272,163944,132583,85.0
2026-04-18T19:53:01.556,2,273,163944,132583,85.0
2026-04-18T19:53:01.576,2,274,163944,132583,85.0
2026-04-18T19:53:01.596,2,275,164213,133078,85.0
2026-04-18T19:53:01.616,2,276,164213,133078,85.0
2026-04-18T19:53:01.636,2,277,164213,133078,85.0
2026-04-18T19:53:01.656,2,278,164213,133078,85.0
2026-04-18T19:53:01.675,2,279,164347,133310,85.0
2026-04-18T19:53:01.696,2,280,164347,133310,85.0
2026-04-18T19:53:01.716,2,281,164347,133310,85.0
2026-04-18T19:53:01.736,2,282,164347,133310,85.0
2026-04-18T19:53:01.755,2,283,164381,133421,85.0
2026-04-18T19:53:01.776,2,284,164381,133421,85.0
2026-04-18T19:53:01.796,2,285,164381,133421,85.0
2026-04-18T19:53:01.815,2,286,164381,133421,85.0
2026-04-18T19:53:01.835,2,287,164477,133597,85.0
2026-04-18T19:53:01.855,2,288,164477,133597,85.0
2026-04-18T19:53:01.875,2,289,164477,133597,85.0
2026-04-18T19:53:01.896,2,290,164477,133597,85.0
2026-04-18T19:53:01.915,2,291,164540,133730,85.0
2026-04-18T19:53:01.935,2,292,164540,133730,85.0
2026-04-18T19:53:01.955,2,293,164540,133730,85.0
2026-04-18T19:53:01.975,2,294,164540,133730,85.0
2026-04-18T19:53:01.996,2,295,164662,134023,85.0
2026-04-18T19:53:02.015,2,296,164662,134023,85.0
2026-04-18T19:53:02.035,2,297,164662,134023,85.0
2026-04-18T19:53:02.056,2,298,164662,134023,85.0
2026-04-18T19:53:02.075,2,299,164674,134056,85.0
2026-04-18T19:53:02.095,2,300,164674,134056,85.0
2026-04-18T19:53:02.115,2,301,164674,134056,85.0
2026-04-18T19:53:02.135,2,302,164674,134056,85.0
2026-04-18T19:53:02.155,2,303,164633,133955,85.0
2026-04-18T19:53:02.175,2,304,164633,133955,85.0
2026-04-18T19:53:02.195,2,305,164633,133955,85.0
2026-04-18T19:53:02.216,2,306,164633,133955,85.0
2026-04-18T19:53:02.235,2,307,164826,134265,85.0
2026-04-18T19:53:02.255,2,308,164826,134265,85.0
2026-04-18T19:53:02.275,2,309,164826,134265,85.0
2026-04-18T19:53:02.295,2,310,164826,134265,85.0
2026-04-18T19:53:02.315,2,311,165137,134839,85.0
2026-04-18T19:53:02.335,2,312,165137,134839,85.0
2026-04-18T19:53:02.355,2,313,165137,134839,85.0
2026-04-18T19:53:02.375,2,314,165137,134839,85.0
2026-04-18T19:53:02.395,2,315,165375,135412,85.0
2026-04-18T19:53:02.415,2,316,165375,135412,85.0
2026-04-18T19:53:02.435,2,317,165375,135412,85.0
2026-04-18T19:53:02.455,2,318,165375,135412,85.0
2026-04-18T19:53:02.475,2,319,163900,133064,85.0
2026-04-18T19:53:02.495,2,320,163900,133064,85.0
2026-04-18T19:53:02.515,2,321,163900,133064,85.0
2026-04-18T19:53:02.535,2,322,163900,133064,85.0
2026-04-18T19:53:02.555,2,323,164043,133331,85.0
2026-04-18T19:53:02.575,2,324,164043,133331,85.0
2026-04-18T19:53:02.594,2,325,164043,133331,85.0
2026-04-18T19:53:02.615,2,326,164043,133331,85.0
2026-04-18T19:53:02.635,2,327,164764,134601,85.0
2026-04-18T19:53:02.655,2,328,164764,134601,85.0
2026-04-18T19:53:02.675,2,329,164764,134601,85.0
2026-04-18T19:53:02.694,2,330,164764,134601,85.0
2026-04-18T19:53:02.715,2,331,165647,136130,85.0
2026-04-18T19:53:02.735,2,332,165647,136130,85.0
2026-04-18T19:53:02.755,2,333,165647,136130,85.0
2026-04-18T19:53:02.775,2,334,165647,136130,85.0
2026-04-18T19:53:02.795,2,335,165947,136579,85.0
2026-04-18T19:53:02.815,2,336,165947,136579,85.0
2026-04-18T19:53:02.834,2,337,165947,136579,85.0
2026-04-18T19:53:02.854,2,338,165947,136579,85.0
2026-04-18T19:53:02.874,2,339,166009,136533,85.0
2026-04-18T19:53:02.894,2,340,166009,136533,85.0
2026-04-18T19:53:02.914,2,341,166009,136533,85.0
2026-04-18T19:53:02.934,2,342,166009,136533,85.0
2026-04-18T19:53:02.954,2,343,166113,136610,85.0
2026-04-18T19:53:02.974,2,344,166113,136610,85.0
2026-04-18T19:53:02.994,2,345,166113,136610,85.0
2026-04-18T19:53:03.014,2,346,166113,136610,85.0
2026-04-18T19:53:03.034,2,347,166353,136999,85.0
2026-04-18T19:53:03.054,2,348,166353,136999,85.0
2026-04-18T19:53:03.075,2,349,166353,136999,85.0
2026-04-18T19:53:03.094,2,350,166353,136999,85.0
2026-04-18T19:53:03.114,2,351,166582,137435,85.0
2026-04-18T19:53:03.134,2,352,166582,137435,85.0
2026-04-18T19:53:03.154,2,353,166582,137435,85.0
2026-04-18T19:53:03.174,2,354,166582,137435,85.0
2026-04-18T19:53:03.194,2,355,166713,137721,85.0
2026-04-18T19:53:03.214,2,356,166713,137721,85.0
2026-04-18T19:53:03.234,2,357,166713,137721,85.0
2026-04-18T19:53:03.254,2,358,166713,137721,85.0
2026-04-18T19:53:03.274,2,359,166870,138029,85.0
2026-04-18T19:53:03.294,2,360,166870,138029,85.0
2026-04-18T19:53:03.313,2,361,166870,138029,85.0
2026-04-18T19:53:03.333,2,362,166870,138029,85.0
2026-04-18T19:53:03.353,2,363,166821,137892,85.0
2026-04-18T19:53:03.373,2,364,166821,137892,85.0
2026-04-18T19:53:03.393,2,365,166821,137892,85.0
2026-04-18T19:53:03.413,2,366,166821,137892,85.0
2026-04-18T19:53:03.434,2,367,166704,137643,85.0
2026-04-18T19:53:03.454,2,368,166704,137643,85.0
2026-04-18T19:53:03.474,2,369,166704,137643,85.0
2026-04-18T19:53:03.494,2,370,166704,137643,85.0
2026-04-18T19:53:03.513,2,371,166415,137057,85.0
2026-04-18T19:53:03.534,2,372,166415,137057,85.0
2026-04-18T19:53:03.554,2,373,166415,137057,85.0
2026-04-18T19:53:03.574,2,374,166415,137057,85.0
2026-04-18T19:53:03.594,2,375,166161,136525,85.0
2026-04-18T19:53:03.614,2,376,166161,136525,85.0
2026-04-18T19:53:03.633,2,377,166161,136525,85.0
2026-04-18T19:53:03.654,2,378,166161,136525,85.0
2026-04-18T19:53:03.674,2,379,166238,136741,85.0
2026-04-18T19:53:03.694,2,380,166238,136741,85.0
2026-04-18T19:53:03.714,2,381,166238,136741,85.0
2026-04-18T19:53:03.733,2,382,166238,136741,85.0
2026-04-18T19:53:03.753,2,383,166334,137029,85.0
2026-04-18T19:53:03.774,2,384,166334,137029,85.0
2026-04-18T19:53:03.793,2,385,166334,137029,85.0
2026-04-18T19:53:03.813,2,386,166334,137029,85.0
2026-04-18T19:53:03.834,2,387,166141,136768,85.0
2026-04-18T19:53:03.853,2,388,166141,136768,85.0
2026-04-18T19:53:03.873,2,389,166141,136768,85.0
2026-04-18T19:53:03.893,2,390,166141,136768,85.0
2026-04-18T19:53:03.913,2,391,165826,136351,85.0
2026-04-18T19:53:03.933,2,392,165826,136351,85.0
2026-04-18T19:53:03.953,2,393,165826,136351,85.0
2026-04-18T19:53:03.973,2,394,165826,136351,85.0
2026-04-18T19:53:03.993,2,395,165577,136112,85.0
2026-04-18T19:53:04.013,2,396,165577,136112,85.0
2026-04-18T19:53:04.033,2,397,165577,136112,85.0
2026-04-18T19:53:04.053,2,398,165577,136112,85.0
2026-04-18T19:53:04.073,2,399,165172,135394,85.0
2026-04-18T19:53:04.093,2,400,165172,135394,85.0
2026-04-18T19:53:04.113,2,401,165172,135394,85.0
2026-04-18T19:53:04.133,2,402,165172,135394,85.0
2026-04-18T19:53:04.153,2,403,164835,134708,85.0
2026-04-18T19:53:04.173,2,404,164835,134708,85.0
2026-04-18T19:53:04.193,2,405,164835,134708,85.0
2026-04-18T19:53:04.213,2,406,164835,134708,85.0
2026-04-18T19:53:04.233,2,407,164849,134598,85.0
2026-04-18T19:53:04.253,2,408,164849,134598,85.0
2026-04-18T19:53:04.273,2,409,164849,134598,85.0
2026-04-18T19:53:04.293,2,410,164849,134598,85.0
2026-04-18T19:53:04.313,2,411,164932,134603,85.0
2026-04-18T19:53:04.333,2,412,164932,134603,85.0
2026-04-18T19:53:04.353,2,413,164932,134603,85.0
2026-04-18T19:53:04.373,2,414,164932,134603,85.0
2026-04-18T19:53:04.393,2,415,165077,134703,85.0
2026-04-18T19:53:04.413,2,416,165077,134703,85.0
2026-04-18T19:53:04.433,2,417,165077,134703,85.0
2026-04-18T19:53:04.453,2,418,165077,134703,85.0
2026-04-18T19:53:04.472,2,419,165362,135003,85.0
2026-04-18T19:53:04.492,2,420,165362,135003,85.0
2026-04-18T19:53:04.512,2,421,165362,135003,85.0
2026-04-18T19:53:04.532,2,422,165362,135003,85.0
2026-04-18T19:53:04.552,2,423,166057,136207,85.0
2026-04-18T19:53:04.572,2,424,166057,136207,85.0
2026-04-18T19:53:04.592,2,425,166057,136207,85.0
2026-04-18T19:53:04.612,2,426,166057,136207,85.0
2026-04-18T19:53:04.633,2,427,166465,137127,85.0
2026-04-18T19:53:04.652,2,428,166465,137127,85.0
2026-04-18T19:53:04.672,2,429,166465,137127,85.0
2026-04-18T19:53:04.692,2,430,166465,137127,85.0
2026-04-18T19:53:04.712,2,431,166117,136587,85.0
2026-04-18T19:53:04.732,2,432,166117,136587,85.0
2026-04-18T19:53:04.752,2,433,166117,136587,85.0
2026-04-18T19:53:04.772,2,434,166117,136587,85.0
2026-04-18T19:53:04.793,2,435,165630,135906,85.0
2026-04-18T19:53:04.812,2,436,165630,135906,85.0
2026-04-18T19:53:04.832,2,437,165630,135906,85.0
2026-04-18T19:53:04.852,2,438,165630,135906,85.0
2026-04-18T19:53:04.872,2,439,165451,135830,85.0
2026-04-18T19:53:04.892,2,440,165451,135830,85.0
2026-04-18T19:53:04.912,2,441,165451,135830,85.0
2026-04-18T19:53:04.933,2,442,165451,135830,85.0
2026-04-18T19:53:04.952,2,443,165443,136026,85.0
2026-04-18T19:53:04.972,2,444,165443,136026,85.0
2026-04-18T19:53:04.992,2,445,165443,136026,85.0
2026-04-18T19:53:05.012,2,446,165443,136026,85.0
2026-04-18T19:53:05.032,2,447,165757,136968,85.0
2026-04-18T19:53:05.052,2,448,165757,136968,85.0
2026-04-18T19:53:05.072,2,449,165757,136968,85.0
2026-04-18T19:53:05.092,2,450,165757,136968,85.0
2026-04-18T19:53:05.112,2,451,165633,137044,85.0
2026-04-18T19:53:05.132,2,452,165633,137044,85.0
2026-04-18T19:53:05.152,2,453,165633,137044,85.0
2026-04-18T19:53:05.171,2,454,165633,137044,85.0
2026-04-18T19:53:05.191,2,455,165518,136780,85.0
2026-04-18T19:53:05.212,2,456,165518,136780,85.0
2026-04-18T19:53:05.231,2,457,165518,136780,85.0
2026-04-18T19:53:05.251,2,458,165518,136780,85.0
2026-04-18T19:53:05.271,2,459,165797,137241,85.0
2026-04-18T19:53:05.291,2,460,165797,137241,85.0
2026-04-18T19:53:05.312,2,461,165797,137241,85.0
2026-04-18T19:53:05.331,2,462,165797,137241,85.0
2026-04-18T19:53:05.351,2,463,165970,137534,85.0
2026-04-18T19:53:05.371,2,464,165970,137534,85.0
2026-04-18T19:53:05.391,2,465,165970,137534,85.0
2026-04-18T19:53:05.411,2,466,165970,137534,85.0
2026-04-18T19:53:05.431,2,467,166032,137757,85.0
2026-04-18T19:53:05.452,2,468,166032,137757,85.0
2026-04-18T19:53:05.472,2,469,166032,137757,85.0
2026-04-18T19:53:05.491,2,470,166032,137757,85.0
2026-04-18T19:53:05.511,2,471,166193,138222,85.0
2026-04-18T19:53:05.531,2,472,166193,138222,85.0
2026-04-18T19:53:05.551,2,473,166193,138222,85.0
2026-04-18T19:53:05.571,2,474,166193,138222,85.0
2026-04-18T19:53:05.591,2,475,166465,138767,85.0
2026-04-18T19:53:05.611,2,476,166465,138767,85.0
2026-04-18T19:53:05.631,2,477,166465,138767,85.0
2026-04-18T19:53:05.651,2,478,166465,138767,85.0
2026-04-18T19:53:05.671,2,479,166315,138396,85.0
2026-04-18T19:53:05.691,2,480,166315,138396,85.0
2026-04-18T19:53:05.711,2,481,166315,138396,85.0
2026-04-18T19:53:05.731,2,482,166315,138396,85.0
2026-04-18T19:53:05.751,2,483,166009,137828,85.0
2026-04-18T19:53:05.772,2,484,166009,137828,85.0
2026-04-18T19:53:05.791,2,485,166009,137828,85.0
2026-04-18T19:53:05.811,2,486,166009,137828,85.0
2026-04-18T19:53:05.831,2,487,166468,138819,85.0
2026-04-18T19:53:05.851,2,488,166468,138819,85.0
2026-04-18T19:53:05.871,2,489,166468,138819,85.0
2026-04-18T19:53:05.891,2,490,166468,138819,85.0
2026-04-18T19:53:05.911,2,491,166314,138227,85.0
2026-04-18T19:53:05.931,2,492,166314,138227,85.0
2026-04-18T19:53:05.951,2,493,166314,138227,85.0
2026-04-18T19:53:05.971,2,494,166314,138227,85.0
2026-04-18T19:53:05.991,2,495,165620,136533,85.0
2026-04-18T19:53:06.011,2,496,165620,136533,85.0
2026-04-18T19:53:06.031,2,497,165620,136533,85.0
2026-04-18T19:53:06.051,2,498,165620,136533,85.0
2026-04-18T19:53:06.071,2,499,165180,135374,85.0
2026-04-18T19:53:06.091,2,500,165180,135374,85.0
2026-04-18T19:53:06.111,2,501,165180,135374,85.0
2026-04-18T19:53:10.286,3,0,168891,140897,78.0
2026-04-18T19:53:10.305,3,1,168929,140943,78.0
2026-04-18T19:53:10.325,3,2,168929,140943,78.0
2026-04-18T19:53:10.346,3,3,168929,140943,78.0
2026-04-18T19:53:10.366,3,4,168929,140943,78.0
2026-04-18T19:53:10.386,3,5,168761,140641,78.0
2026-04-18T19:53:10.406,3,6,168761,140641,78.0
2026-04-18T19:53:10.426,3,7,168761,140641,78.0
2026-04-18T19:53:10.446,3,8,168761,140641,78.0
2026-04-18T19:53:10.466,3,9,168658,140333,78.0
2026-04-18T19:53:10.486,3,10,168658,140333,78.0
2026-04-18T19:53:10.505,3,11,168658,140333,78.0
2026-04-18T19:53:10.526,3,12,168658,140333,78.0
2026-04-18T19:53:10.546,3,13,168434,139762,78.0
2026-04-18T19:53:10.566,3,14,168434,139762,78.0
2026-04-18T19:53:10.586,3,15,168434,139762,78.0
2026-04-18T19:53:10.606,3,16,168434,139762,78.0
2026-04-18T19:53:10.625,3,17,167384,137618,78.0
2026-04-18T19:53:10.646,3,18,167384,137618,78.0
2026-04-18T19:53:10.666,3,19,167384,137618,78.0
2026-04-18T19:53:10.686,3,20,167384,137618,78.0
2026-04-18T19:53:10.705,3,21,166116,135105,78.0
2026-04-18T19:53:10.725,3,22,166116,135105,78.0
2026-04-18T19:53:10.745,3,23,166116,135105,78.0
2026-04-18T19:53:10.766,3,24,166116,135105,78.0
2026-04-18T19:53:10.786,3,25,165239,133328,78.0
2026-04-18T19:53:10.805,3,26,165239,133328,78.0
2026-04-18T19:53:10.825,3,27,165239,133328,78.0
2026-04-18T19:53:10.845,3,28,165239,133328,78.0
2026-04-18T19:53:10.865,3,29,164518,131939,78.0
2026-04-18T19:53:10.885,3,30,164518,131939,78.0
2026-04-18T19:53:10.905,3,31,164518,131939,78.0
2026-04-18T19:53:10.925,3,32,164518,131939,78.0
2026-04-18T19:53:10.946,3,33,163617,130627,78.0
2026-04-18T19:53:10.965,3,34,163617,130627,78.0
2026-04-18T19:53:10.985,3,35,163617,130627,78.0
2026-04-18T19:53:11.005,3,36,163617,130627,78.0
2026-04-18T19:53:11.025,3,37,163085,129944,78.0
2026-04-18T19:53:11.045,3,38,163085,129944,78.0
2026-04-18T19:53:11.065,3,39,163085,129944,78.0
2026-04-18T19:53:11.085,3,40,163085,129944,78.0
2026-04-18T19:53:11.105,3,41,162522,129296,78.0
2026-04-18T19:53:11.125,3,42,162522,129296,78.0
2026-04-18T19:53:11.144,3,43,162522,129296,78.0
2026-04-18T19:53:11.165,3,44,162522,129296,78.0
2026-04-18T19:53:11.185,3,45,162176,128791,78.0
2026-04-18T19:53:11.205,3,46,162176,128791,78.0
2026-04-18T19:53:11.225,3,47,162176,128791,78.0
2026-04-18T19:53:11.245,3,48,162176,128791,78.0
2026-04-18T19:53:11.265,3,49,161775,128129,78.0
2026-04-18T19:53:11.285,3,50,161775,128129,78.0
2026-04-18T19:53:11.305,3,51,161775,128129,78.0
2026-04-18T19:53:11.325,3,52,161775,128129,78.0
2026-04-18T19:53:11.345,3,53,161585,127807,78.0
2026-04-18T19:53:11.365,3,54,161585,127807,78.0
2026-04-18T19:53:11.385,3,55,161585,127807,78.0
2026-04-18T19:53:11.405,3,56,161585,127807,78.0
2026-04-18T19:53:11.425,3,57,161427,127615,78.0
2026-04-18T19:53:11.445,3,58,161427,127615,78.0
2026-04-18T19:53:11.465,3,59,161427,127615,78.0
2026-04-18T19:53:11.485,3,60,161427,127615,78.0
2026-04-18T19:53:11.504,3,61,161373,127561,78.0
2026-04-18T19:53:11.524,3,62,161373,127561,78.0
2026-04-18T19:53:11.544,3,63,161373,127561,78.0
2026-04-18T19:53:11.564,3,64,161373,127561,78.0
2026-04-18T19:53:11.584,3,65,161273,127452,78.0
2026-04-18T19:53:11.605,3,66,161273,127452,78.0
2026-04-18T19:53:11.624,3,67,161273,127452,78.0
2026-04-18T19:53:11.645,3,68,161273,127452,78.0
2026-04-18T19:53:11.664,3,69,161171,127363,78.0
2026-04-18T19:53:11.684,3,70,161171,127363,78.0
2026-04-18T19:53:11.704,3,71,161171,127363,78.0
2026-04-18T19:53:11.725,3,72,161171,127363,78.0
2026-04-18T19:53:11.744,3,73,161090,127255,78.0
2026-04-18T19:53:11.764,3,74,161090,127255,78.0
2026-04-18T19:53:11.784,3,75,161090,127255,78.0
2026-04-18T19:53:11.804,3,76,161090,127255,78.0
2026-04-18T19:53:11.824,3,77,161015,127156,78.0
2026-04-18T19:53:11.844,3,78,161015,127156,78.0
2026-04-18T19:53:11.864,3,79,161015,127156,78.0
2026-04-18T19:53:11.884,3,80,161015,127156,78.0
2026-04-18T19:53:11.904,3,81,161001,127158,78.0
2026-04-18T19:53:11.924,3,82,161001,127158,78.0
2026-04-18T19:53:11.944,3,83,161001,127158,78.0
2026-04-18T19:53:11.964,3,84,161001,127158,78.0
2026-04-18T19:53:11.984,3,85,160999,127230,78.0
2026-04-18T19:53:12.004,3,86,160999,127230,78.0
2026-04-18T19:53:12.024,3,87,160999,127230,78.0
2026-04-18T19:53:12.044,3,88,160999,127230,78.0
2026-04-18T19:53:12.064,3,89,161066,127464,78.0
2026-04-18T19:53:12.083,3,90,161066,127464,78.0
2026-04-18T19:53:12.104,3,91,161066,127464,78.0
2026-04-18T19:53:12.124,3,92,161066,127464,78.0
2026-04-18T19:53:12.143,3,93,161121,127616,78.0
2026-04-18T19:53:12.163,3,94,161121,127616,78.0
2026-04-18T19:53:12.183,3,95,161121,127616,78.0
2026-04-18T19:53:12.203,3,96,161121,127616,78.0
2026-04-18T19:53:12.223,3,97,161142,127684,78.0
2026-04-18T19:53:12.243,3,98,161142,127684,78.0
2026-04-18T19:53:12.264,3,99,161142,127684,78.0
2026-04-18T19:53:12.284,3,100,161142,127684,78.0
2026-04-18T19:53:12.303,3,101,161149,127678,78.0
2026-04-18T19:53:12.323,3,102,161149,127678,78.0
2026-04-18T19:53:12.343,3,103,161149,127678,78.0
2026-04-18T19:53:12.364,3,104,161149,127678,78.0
2026-04-18T19:53:12.383,3,105,161126,127597,78.0
2026-04-18T19:53:12.403,3,106,161126,127597,78.0
2026-04-18T19:53:12.424,3,107,161126,127597,78.0
2026-04-18T19:53:12.443,3,108,161126,127597,78.0
2026-04-18T19:53:12.463,3,109,161105,127530,78.0
2026-04-18T19:53:12.483,3,110,161105,127530,78.0
2026-04-18T19:53:12.503,3,111,161105,127530,78.0
2026-04-18T19:53:12.523,3,112,161105,127530,78.0
2026-04-18T19:53:12.543,3,113,161107,127487,78.0
2026-04-18T19:53:12.563,3,114,161107,127487,78.0
2026-04-18T19:53:12.583,3,115,161107,127487,78.0
2026-04-18T19:53:12.603,3,116,161107,127487,78.0
2026-04-18T19:53:12.623,3,117,161136,127541,78.0
2026-04-18T19:53:12.643,3,118,161136,127541,78.0
2026-04-18T19:53:12.663,3,119,161136,127541,78.0
2026-04-18T19:53:12.683,3,120,161136,127541,78.0
2026-04-18T19:53:12.703,3,121,161169,127630,78.0
2026-04-18T19:53:12.723,3,122,161169,127630,78.0
2026-04-18T19:53:12.743,3,123,161169,127630,78.0
2026-04-18T19:53:12.763,3,124,161169,127630,78.0
2026-04-18T19:53:12.783,3,125,161201,127738,78.0
2026-04-18T19:53:12.803,3,126,161201,127738,78.0
2026-04-18T19:53:12.823,3,127,161201,127738,78.0
2026-04-18T19:53:12.843,3,128,161201,127738,78.0
2026-04-18T19:53:12.863,3,129,161219,127805,78.0
2026-04-18T19:53:12.883,3,130,161219,127805,78.0
2026-04-18T19:53:12.903,3,131,161219,127805,78.0
2026-04-18T19:53:12.923,3,132,161219,127805,78.0
2026-04-18T19:53:12.943,3,133,161237,127802,78.0
2026-04-18T19:53:12.963,3,134,161237,127802,78.0
2026-04-18T19:53:12.983,3,135,161237,127802,78.0
2026-04-18T19:53:13.003,3,136,161237,127802,78.0
2026-04-18T19:53:13.023,3,137,161245,127792,78.0
2026-04-18T19:53:13.043,3,138,161245,127792,78.0
2026-04-18T19:53:13.063,3,139,161245,127792,78.0
2026-04-18T19:53:13.083,3,140,161245,127792,78.0
2026-04-18T19:53:13.103,3,141,161258,127843,78.0
2026-04-18T19:53:13.122,3,142,161258,127843,78.0
2026-04-18T19:53:13.143,3,143,161258,127843,78.0
2026-04-18T19:53:13.163,3,144,161258,127843,78.0
2026-04-18T19:53:13.182,3,145,161273,127885,78.0
2026-04-18T19:53:13.202,3,146,161273,127885,78.0
2026-04-18T19:53:13.222,3,147,161273,127885,78.0
2026-04-18T19:53:13.242,3,148,161273,127885,78.0
2026-04-18T19:53:13.262,3,149,161301,127901,78.0
2026-04-18T19:53:13.282,3,150,161301,127901,78.0
2026-04-18T19:53:13.302,3,151,161301,127901,78.0
2026-04-18T19:53:13.322,3,152,161301,127901,78.0
2026-04-18T19:53:13.342,3,153,161308,127873,78.0
2026-04-18T19:53:13.362,3,154,161308,127873,78.0
2026-04-18T19:53:13.382,3,155,161308,127873,78.0
2026-04-18T19:53:13.402,3,156,161308,127873,78.0
2026-04-18T19:53:13.422,3,157,161319,127860,78.0
2026-04-18T19:53:13.442,3,158,161319,127860,78.0
2026-04-18T19:53:13.462,3,159,161319,127860,78.0
2026-04-18T19:53:13.482,3,160,161319,127860,78.0
2026-04-18T19:53:13.502,3,161,161330,127891,78.0
2026-04-18T19:53:13.522,3,162,161330,127891,78.0
2026-04-18T19:53:13.542,3,163,161330,127891,78.0
2026-04-18T19:53:13.563,3,164,161330,127891,78.0
2026-04-18T19:53:13.582,3,165,161326,127898,78.0
2026-04-18T19:53:13.602,3,166,161326,127898,78.0
2026-04-18T19:53:13.622,3,167,161326,127898,78.0
2026-04-18T19:53:13.642,3,168,161326,127898,78.0
2026-04-18T19:53:13.662,3,169,161288,127822,78.0
2026-04-18T19:53:13.682,3,170,161288,127822,78.0
2026-04-18T19:53:13.702,3,171,161288,127822,78.0
2026-04-18T19:53:13.722,3,172,161288,127822,78.0
2026-04-18T19:53:13.742,3,173,161235,127754,78.0
2026-04-18T19:53:13.762,3,174,161235,127754,78.0
2026-04-18T19:53:13.782,3,175,161235,127754,78.0
2026-04-18T19:53:13.802,3,176,161235,127754,78.0
2026-04-18T19:53:13.822,3,177,161224,127697,78.0
2026-04-18T19:53:13.842,3,178,161224,127697,78.0
2026-04-18T19:53:13.862,3,179,161224,127697,78.0
2026-04-18T19:53:13.882,3,180,161224,127697,78.0
2026-04-18T19:53:13.902,3,181,161207,127661,78.0
2026-04-18T19:53:13.921,3,182,161207,127661,78.0
2026-04-18T19:53:13.942,3,183,161207,127661,78.0
2026-04-18T19:53:13.962,3,184,161207,127661,78.0
2026-04-18T19:53:13.982,3,185,161237,127694,78.0
2026-04-18T19:53:14.001,3,186,161237,127694,78.0
2026-04-18T19:53:14.022,3,187,161237,127694,78.0
2026-04-18T19:53:14.042,3,188,161237,127694,78.0
2026-04-18T19:53:14.062,3,189,161247,127702,78.0
2026-04-18T19:53:14.082,3,190,161247,127702,78.0
2026-04-18T19:53:14.102,3,191,161247,127702,78.0
2026-04-18T19:53:14.121,3,192,161247,127702,78.0
2026-04-18T19:53:14.141,3,193,161276,127715,78.0
2026-04-18T19:53:14.162,3,194,161276,127715,78.0
2026-04-18T19:53:14.182,3,195,161276,127715,78.0
2026-04-18T19:53:14.202,3,196,161276,127715,78.0
2026-04-18T19:53:14.221,3,197,161315,127809,78.0
2026-04-18T19:53:14.242,3,198,161315,127809,78.0
2026-04-18T19:53:14.262,3,199,161315,127809,78.0
2026-04-18T19:53:14.281,3,200,161315,127809,78.0
2026-04-18T19:53:14.301,3,201,161358,127954,78.0
2026-04-18T19:53:14.322,3,202,161358,127954,78.0
2026-04-18T19:53:14.341,3,203,161358,127954,78.0
2026-04-18T19:53:14.361,3,204,161358,127954,78.0
2026-04-18T19:53:14.381,3,205,161430,128136,78.0
2026-04-18T19:53:14.401,3,206,161430,128136,78.0
2026-04-18T19:53:14.421,3,207,161430,128136,78.0
2026-04-18T19:53:14.441,3,208,161430,128136,78.0
2026-04-18T19:53:14.461,3,209,161484,128355,78.0
2026-04-18T19:53:14.481,3,210,161484,128355,78.0
2026-04-18T19:53:14.501,3,211,161484,128355,78.0
2026-04-18T19:53:14.522,3,212,161484,128355,78.0
2026-04-18T19:53:14.541,3,213,161533,128461,78.0
2026-04-18T19:53:14.561,3,214,161533,128461,78.0
2026-04-18T19:53:14.581,3,215,161533,128461,78.0
2026-04-18T19:53:14.601,3,216,161533,128461,78.0
2026-04-18T19:53:14.621,3,217,161519,128423,78.0
2026-04-18T19:53:14.641,3,218,161519,128423,78.0
2026-04-18T19:53:14.661,3,219,161519,128423,78.0
2026-04-18T19:53:14.681,3,220,161519,128423,78.0
2026-04-18T19:53:14.701,3,221,161529,128449,78.0
2026-04-18T19:53:14.721,3,222,161529,128449,78.0
2026-04-18T19:53:14.741,3,223,161529,128449,78.0
2026-04-18T19:53:14.761,3,224,161529,128449,78.0
2026-04-18T19:53:14.781,3,225,161555,128478,78.0
2026-04-18T19:53:14.801,3,226,161555,128478,78.0
2026-04-18T19:53:14.821,3,227,161555,128478,78.0
2026-04-18T19:53:14.841,3,228,161555,128478,78.0
2026-04-18T19:53:14.861,3,229,161558,128478,78.0
2026-04-18T19:53:14.881,3,230,161558,128478,78.0
2026-04-18T19:53:14.901,3,231,161558,128478,78.0
2026-04-18T19:53:14.922,3,232,161558,128478,78.0
2026-04-18T19:53:14.941,3,233,161552,128429,78.0
2026-04-18T19:53:14.961,3,234,161552,128429,78.0
2026-04-18T19:53:14.981,3,235,161552,128429,78.0
2026-04-18T19:53:15.001,3,236,161552,128429,78.0
2026-04-18T19:53:15.021,3,237,161575,128486,78.0
2026-04-18T19:53:15.040,3,238,161575,128486,78.0
2026-04-18T19:53:15.060,3,239,161575,128486,78.0
2026-04-18T19:53:15.081,3,240,161575,128486,78.0
2026-04-18T19:53:15.101,3,241,161597,128590,78.0
2026-04-18T19:53:15.120,3,242,161597,128590,78.0
2026-04-18T19:53:15.141,3,243,161597,128590,78.0
2026-04-18T19:53:15.160,3,244,161597,128590,78.0
2026-04-18T19:53:15.180,3,245,161647,128742,78.0
2026-04-18T19:53:15.200,3,246,161647,128742,78.0
2026-04-18T19:53:15.220,3,247,161647,128742,78.0
2026-04-18T19:53:15.240,3,248,161647,128742,78.0
2026-04-18T19:53:15.260,3,249,161664,128861,78.0
2026-04-18T19:53:15.280,3,250,161664,128861,78.0
2026-04-18T19:53:15.301,3,251,161664,128861,78.0
2026-04-18T19:53:15.320,3,252,161664,128861,78.0
2026-04-18T19:53:15.340,3,253,161683,128960,78.0
2026-04-18T19:53:15.360,3,254,161683,128960,78.0
2026-04-18T19:53:15.381,3,255,161683,128960,78.0
2026-04-18T19:53:15.400,3,256,161683,128960,78.0
2026-04-18T19:53:15.420,3,257,161656,128907,78.0
2026-04-18T19:53:15.440,3,258,161656,128907,78.0
2026-04-18T19:53:15.460,3,259,161656,128907,78.0
2026-04-18T19:53:15.480,3,260,161656,128907,78.0
2026-04-18T19:53:15.500,3,261,161654,128880,78.0
2026-04-18T19:53:15.520,3,262,161654,128880,78.0
2026-04-18T19:53:15.540,3,263,161654,128880,78.0
2026-04-18T19:53:15.560,3,264,161654,128880,78.0
2026-04-18T19:53:15.580,3,265,161653,128860,78.0
2026-04-18T19:53:15.600,3,266,161653,128860,78.0
2026-04-18T19:53:15.620,3,267,161653,128860,78.0
2026-04-18T19:53:15.640,3,268,161653,128860,78.0
2026-04-18T19:53:15.659,3,269,161656,128841,78.0
2026-04-18T19:53:15.680,3,270,161656,128841,78.0
2026-04-18T19:53:15.700,3,271,161656,128841,78.0
2026-04-18T19:53:15.720,3,272,161656,128841,78.0
2026-04-18T19:53:15.739,3,273,161626,128740,78.0
2026-04-18T19:53:15.760,3,274,161626,128740,78.0
2026-04-18T19:53:15.780,3,275,161626,128740,78.0
2026-04-18T19:53:15.799,3,276,161626,128740,78.0
2026-04-18T19:53:15.819,3,277,161593,128704,78.0
2026-04-18T19:53:15.840,3,278,161593,128704,78.0
2026-04-18T19:53:15.860,3,279,161593,128704,78.0
2026-04-18T19:53:15.879,3,280,161593,128704,78.0
2026-04-18T19:53:15.900,3,281,161568,128622,78.0
2026-04-18T19:53:15.920,3,282,161568,128622,78.0
2026-04-18T19:53:15.940,3,283,161568,128622,78.0
2026-04-18T19:53:15.960,3,284,161568,128622,78.0
2026-04-18T19:53:15.979,3,285,161480,128423,78.0
2026-04-18T19:53:16.000,3,286,161480,128423,78.0
2026-04-18T19:53:16.020,3,287,161480,128423,78.0
2026-04-18T19:53:16.039,3,288,161480,128423,78.0
2026-04-18T19:53:16.059,3,289,161395,128289,78.0
2026-04-18T19:53:16.080,3,290,161395,128289,78.0
2026-04-18T19:53:16.100,3,291,161395,128289,78.0
2026-04-18T19:53:16.119,3,292,161395,128289,78.0
2026-04-18T19:53:16.139,3,293,161309,128162,78.0
2026-04-18T19:53:16.159,3,294,161309,128162,78.0
2026-04-18T19:53:16.179,3,295,161309,128162,78.0
2026-04-18T19:53:16.200,3,296,161309,128162,78.0
2026-04-18T19:53:16.219,3,297,161233,128025,78.0
2026-04-18T19:53:16.239,3,298,161233,128025,78.0
2026-04-18T19:53:16.259,3,299,161233,128025,78.0
2026-04-18T19:53:16.279,3,300,161233,128025,78.0
2026-04-18T19:53:16.299,3,301,161157,127911,78.0
2026-04-18T19:53:16.319,3,302,161157,127911,78.0
2026-04-18T19:53:16.339,3,303,161157,127911,78.0
2026-04-18T19:53:16.359,3,304,161157,127911,78.0
2026-04-18T19:53:16.379,3,305,161091,127778,78.0
2026-04-18T19:53:16.399,3,306,161091,127778,78.0
2026-04-18T19:53:16.419,3,307,161091,127778,78.0
2026-04-18T19:53:16.439,3,308,161091,127778,78.0
2026-04-18T19:53:16.459,3,309,161070,127705,78.0
2026-04-18T19:53:16.479,3,310,161070,127705,78.0
2026-04-18T19:53:16.499,3,311,161070,127705,78.0
2026-04-18T19:53:16.519,3,312,161070,127705,78.0
2026-04-18T19:53:16.539,3,313,161047,127553,78.0
2026-04-18T19:53:16.559,3,314,161047,127553,78.0
2026-04-18T19:53:16.578,3,315,161047,127553,78.0
2026-04-18T19:53:16.599,3,316,161047,127553,78.0
2026-04-18T19:53:16.618,3,317,161050,127578,78.0
2026-04-18T19:53:16.639,3,318,161050,127578,78.0
2026-04-18T19:53:16.658,3,319,161050,127578,78.0
2026-04-18T19:53:16.678,3,320,161050,127578,78.0
2026-04-18T19:53:16.699,3,321,161055,127667,78.0
2026-04-18T19:53:16.718,3,322,161055,127667,78.0
2026-04-18T19:53:16.739,3,323,161055,127667,78.0
2026-04-18T19:53:16.759,3,324,161055,127667,78.0
2026-04-18T19:53:16.779,3,325,161046,127679,78.0
2026-04-18T19:53:16.799,3,326,161046,127679,78.0
2026-04-18T19:53:16.819,3,327,161046,127679,78.0
2026-04-18T19:53:16.838,3,328,161046,127679,78.0
2026-04-18T19:53:16.859,3,329,161032,127714,78.0
2026-04-18T19:53:16.879,3,330,161032,127714,78.0
2026-04-18T19:53:16.899,3,331,161032,127714,78.0
2026-04-18T19:53:16.919,3,332,161032,127714,78.0
2026-04-18T19:53:16.938,3,333,161078,127866,78.0
2026-04-18T19:53:16.958,3,334,161078,127866,78.0
2026-04-18T19:53:16.978,3,335,161078,127866,78.0
2026-04-18T19:53:16.998,3,336,161078,127866,78.0
2026-04-18T19:53:17.018,3,337,161079,127927,78.0
2026-04-18T19:53:17.039,3,338,161079,127927,78.0
2026-04-18T19:53:17.058,3,339,161079,127927,78.0
2026-04-18T19:53:17.078,3,340,161079,127927,78.0
2026-04-18T19:53:17.098,3,341,161108,128003,78.0
2026-04-18T19:53:17.119,3,342,161108,128003,78.0
2026-04-18T19:53:17.138,3,343,161108,128003,78.0
2026-04-18T19:53:17.158,3,344,161108,128003,78.0
2026-04-18T19:53:17.178,3,345,161154,128126,78.0
2026-04-18T19:53:17.198,3,346,161154,128126,78.0
2026-04-18T19:53:17.219,3,347,161154,128126,78.0
2026-04-18T19:53:17.238,3,348,161154,128126,78.0
2026-04-18T19:53:17.258,3,349,161226,128271,78.0
2026-04-18T19:53:17.278,3,350,161226,128271,78.0
2026-04-18T19:53:17.298,3,351,161226,128271,78.0
2026-04-18T19:53:17.318,3,352,161226,128271,78.0
2026-04-18T19:53:17.338,3,353,161295,128358,78.0
2026-04-18T19:53:17.358,3,354,161295,128358,78.0
2026-04-18T19:53:17.378,3,355,161295,128358,78.0
2026-04-18T19:53:17.398,3,356,161295,128358,78.0
2026-04-18T19:53:17.418,3,357,161400,128566,78.0
2026-04-18T19:53:17.438,3,358,161400,128566,78.0
2026-04-18T19:53:17.458,3,359,161400,128566,78.0
2026-04-18T19:53:17.478,3,360,161400,128566,78.0
2026-04-18T19:53:17.498,3,361,161462,128723,78.0
2026-04-18T19:53:17.517,3,362,161462,128723,78.0
2026-04-18T19:53:17.538,3,363,161462,128723,78.0
2026-04-18T19:53:17.557,3,364,161462,128723,78.0
2026-04-18T19:53:17.578,3,365,161523,128940,78.0
2026-04-18T19:53:17.597,3,366,161523,128940,78.0
2026-04-18T19:53:17.617,3,367,161523,128940,78.0
2026-04-18T19:53:17.637,3,368,161523,128940,78.0
2026-04-18T19:53:17.658,3,369,161547,129067,78.0
2026-04-18T19:53:17.677,3,370,161547,129067,78.0
2026-04-18T19:53:17.697,3,371,161547,129067,78.0
2026-04-18T19:53:17.717,3,372,161547,129067,78.0
2026-04-18T19:53:17.737,3,373,161549,129063,78.0
2026-04-18T19:53:17.757,3,374,161549,129063,78.0
2026-04-18T19:53:17.778,3,375,161549,129063,78.0
2026-04-18T19:53:17.797,3,376,161549,129063,78.0
2026-04-18T19:53:17.818,3,377,161527,128980,78.0
2026-04-18T19:53:17.838,3,378,161527,128980,78.0
2026-04-18T19:53:17.857,3,379,161527,128980,78.0
2026-04-18T19:53:17.878,3,380,161527,128980,78.0
2026-04-18T19:53:17.898,3,381,161520,128957,78.0
2026-04-18T19:53:17.917,3,382,161520,128957,78.0
2026-04-18T19:53:17.937,3,383,161520,128957,78.0
2026-04-18T19:53:17.957,3,384,161520,128957,78.0
2026-04-18T19:53:17.977,3,385,161518,128937,78.0
2026-04-18T19:53:17.997,3,386,161518,128937,78.0
2026-04-18T19:53:18.017,3,387,161518,128937,78.0
2026-04-18T19:53:18.037,3,388,161518,128937,78.0
2026-04-18T19:53:18.057,3,389,161533,128964,78.0
2026-04-18T19:53:18.077,3,390,161533,128964,78.0
2026-04-18T19:53:18.097,3,391,161533,128964,78.0
2026-04-18T19:53:18.117,3,392,161533,128964,78.0
2026-04-18T19:53:18.137,3,393,161553,128930,78.0
2026-04-18T19:53:18.157,3,394,161553,128930,78.0
2026-04-18T19:53:18.177,3,395,161553,128930,78.0
2026-04-18T19:53:18.197,3,396,161553,128930,78.0
2026-04-18T19:53:18.217,3,397,161623,129017,78.0
2026-04-18T19:53:18.237,3,398,161623,129017,78.0
2026-04-18T19:53:18.256,3,399,161623,129017,78.0
2026-04-18T19:53:18.277,3,400,161623,129017,78.0
2026-04-18T19:53:18.297,3,401,161662,129083,78.0
2026-04-18T19:53:18.317,3,402,161662,129083,78.0
2026-04-18T19:53:18.337,3,403,161662,129083,78.0
2026-04-18T19:53:18.357,3,404,161662,129083,78.0
2026-04-18T19:53:18.377,3,405,161659,129058,78.0
2026-04-18T19:53:18.397,3,406,161659,129058,78.0
2026-04-18T19:53:18.417,3,407,161659,129058,78.0
2026-04-18T19:53:18.437,3,408,161659,129058,78.0
2026-04-18T19:53:18.457,3,409,161592,128936,78.0
2026-04-18T19:53:18.477,3,410,161592,128936,78.0
2026-04-18T19:53:18.497,3,411,161592,128936,78.0
2026-04-18T19:53:18.517,3,412,161592,128936,78.0
2026-04-18T19:53:18.537,3,413,161525,128819,78.0
2026-04-18T19:53:18.556,3,414,161525,128819,78.0
2026-04-18T19:53:18.576,3,415,161525,128819,78.0
2026-04-18T19:53:18.597,3,416,161525,128819,78.0
2026-04-18T19:53:18.617,3,417,161439,128627,78.0
2026-04-18T19:53:18.637,3,418,161439,128627,78.0
2026-04-18T19:53:18.657,3,419,161439,128627,78.0
2026-04-18T19:53:18.677,3,420,161439,128627,78.0
2026-04-18T19:53:18.697,3,421,161363,128454,78.0
2026-04-18T19:53:18.717,3,422,161363,128454,78.0
2026-04-18T19:53:18.736,3,423,161363,128454,78.0
2026-04-18T19:53:18.756,3,424,161363,128454,78.0
2026-04-18T19:53:18.776,3,425,161309,128277,78.0
2026-04-18T19:53:18.796,3,426,161309,128277,78.0
2026-04-18T19:53:18.816,3,427,161309,128277,78.0
2026-04-18T19:53:18.836,3,428,161309,128277,78.0
2026-04-18T19:53:18.856,3,429,161262,128155,78.0
2026-04-18T19:53:18.876,3,430,161262,128155,78.0
2026-04-18T19:53:18.896,3,431,161262,128155,78.0
2026-04-18T19:53:18.916,3,432,161262,128155,78.0
2026-04-18T19:53:18.937,3,433,161274,128090,78.0
2026-04-18T19:53:18.956,3,434,161274,128090,78.0
2026-04-18T19:53:18.976,3,435,161274,128090,78.0
2026-04-18T19:53:18.996,3,436,161274,128090,78.0
2026-04-18T19:53:19.016,3,437,161310,128164,78.0
2026-04-18T19:53:19.036,3,438,161310,128164,78.0
2026-04-18T19:53:19.056,3,439,161310,128164,78.0
2026-04-18T19:53:19.076,3,440,161310,128164,78.0
2026-04-18T19:53:19.096,3,441,161322,128211,78.0
2026-04-18T19:53:19.116,3,442,161322,128211,78.0
2026-04-18T19:53:19.136,3,443,161322,128211,78.0
2026-04-18T19:53:19.156,3,444,161322,128211,78.0
2026-04-18T19:53:19.176,3,445,161342,128305,78.0
2026-04-18T19:53:19.196,3,446,161342,128305,78.0
2026-04-18T19:53:19.216,3,447,161342,128305,78.0
2026-04-18T19:53:19.236,3,448,161342,128305,78.0
2026-04-18T19:53:19.256,3,449,161383,128479,78.0
2026-04-18T19:53:19.276,3,450,161383,128479,78.0
2026-04-18T19:53:19.296,3,451,161383,128479,78.0
2026-04-18T19:53:19.316,3,452,161383,128479,78.0
2026-04-18T19:53:19.336,3,453,161420,128525,78.0
2026-04-18T19:53:19.356,3,454,161420,128525,78.0
2026-04-18T19:53:19.376,3,455,161420,128525,78.0
2026-04-18T19:53:19.395,3,456,161420,128525,78.0
2026-04-18T19:53:19.416,3,457,161608,128907,78.0
2026-04-18T19:53:19.436,3,458,161608,128907,78.0
2026-04-18T19:53:19.456,3,459,161608,128907,78.0
2026-04-18T19:53:19.476,3,460,161608,128907,78.0
2026-04-18T19:53:19.496,3,461,161734,129184,78.0
2026-04-18T19:53:19.516,3,462,161734,129184,78.0
2026-04-18T19:53:19.536,3,463,161734,129184,78.0
2026-04-18T19:53:19.556,3,464,161734,129184,78.0
2026-04-18T19:53:19.576,3,465,161751,129177,78.0
2026-04-18T19:53:19.595,3,466,161751,129177,78.0
2026-04-18T19:53:19.615,3,467,161751,129177,78.0
2026-04-18T19:53:19.636,3,468,161751,129177,78.0
2026-04-18T19:53:19.656,3,469,161808,129360,78.0
2026-04-18T19:53:19.676,3,470,161808,129360,78.0
2026-04-18T19:53:19.695,3,471,161808,129360,78.0
2026-04-18T19:53:19.716,3,472,161808,129360,78.0
2026-04-18T19:53:19.735,3,473,161921,129497,78.0
2026-04-18T19:53:19.756,3,474,161921,129497,78.0
2026-04-18T19:53:19.775,3,475,161921,129497,78.0
2026-04-18T19:53:19.795,3,476,161921,129497,78.0
2026-04-18T19:53:19.815,3,477,162235,130001,78.0
2026-04-18T19:53:19.835,3,478,162235,130001,78.0
2026-04-18T19:53:19.855,3,479,162235,130001,78.0
2026-04-18T19:53:19.875,3,480,162235,130001,78.0
2026-04-18T19:53:19.895,3,481,162505,130500,78.0
2026-04-18T19:53:19.915,3,482,162505,130500,78.0
2026-04-18T19:53:19.936,3,483,162505,130500,78.0
2026-04-18T19:53:19.955,3,484,162505,130500,78.0
2026-04-18T19:53:19.975,3,485,162611,130701,78.0
2026-04-18T19:53:19.995,3,486,162611,130701,78.0
2026-04-18T19:53:20.015,3,487,162611,130701,78.0
2026-04-18T19:53:20.035,3,488,162611,130701,78.0
2026-04-18T19:53:20.055,3,489,162608,130724,78.0
2026-04-18T19:53:20.075,3,490,162608,130724,78.0
2026-04-18T19:53:20.095,3,491,162608,130724,78.0
2026-04-18T19:53:20.115,3,492,162608,130724,78.0
2026-04-18T19:53:20.135,3,493,162614,130716,78.0
2026-04-18T19:53:20.155,3,494,162614,130716,78.0
2026-04-18T19:53:20.175,3,495,162614,130716,78.0
2026-04-18T19:53:20.195,3,496,162614,130716,78.0
2026-04-18T19:53:20.215,3,497,162594,130649,78.0
2026-04-18T19:53:20.235,3,498,162594,130649,78.0
2026-04-18T19:53:20.255,3,499,162594,130649,78.0
2026-04-18T19:53:20.275,3,500,162594,130649,78.0
2026-04-18T19:53:20.295,3,501,162575,130591,78.0
2026-04-18T19:53:24.051,4,0,169360,139389,76.0
2026-04-18T19:53:24.070,4,1,169360,139389,76.0
2026-04-18T19:53:24.091,4,2,169360,139389,76.0
2026-04-18T19:53:24.111,4,3,169360,139389,76.0
2026-04-18T19:53:24.131,4,4,169480,139554,76.0
2026-04-18T19:53:24.151,4,5,169480,139554,76.0
2026-04-18T19:53:24.171,4,6,169480,139554,76.0
2026-04-18T19:53:24.191,4,7,169480,139554,76.0
2026-04-18T19:53:24.210,4,8,169128,138836,76.0
2026-04-18T19:53:24.230,4,9,169128,138836,76.0
2026-04-18T19:53:24.251,4,10,169128,138836,76.0
2026-04-18T19:53:24.270,4,11,169128,138836,76.0
2026-04-18T19:53:24.291,4,12,168702,137882,76.0
2026-04-18T19:53:24.310,4,13,168702,137882,76.0
2026-04-18T19:53:24.331,4,14,168702,137882,76.0
2026-04-18T19:53:24.350,4,15,168702,137882,76.0
2026-04-18T19:53:24.370,4,16,168023,136391,76.0
2026-04-18T19:53:24.391,4,17,168023,136391,76.0
2026-04-18T19:53:24.410,4,18,168023,136391,76.0
2026-04-18T19:53:24.430,4,19,168023,136391,76.0
2026-04-18T19:53:24.450,4,20,167119,134644,76.0
2026-04-18T19:53:24.470,4,21,167119,134644,76.0
2026-04-18T19:53:24.490,4,22,167119,134644,76.0
2026-04-18T19:53:24.510,4,23,167119,134644,76.0
2026-04-18T19:53:24.530,4,24,166099,132650,76.0
2026-04-18T19:53:24.550,4,25,166099,132650,76.0
2026-04-18T19:53:24.570,4,26,166099,132650,76.0
2026-04-18T19:53:24.589,4,27,166099,132650,76.0
2026-04-18T19:53:24.610,4,28,165634,131837,76.0
2026-04-18T19:53:24.630,4,29,165634,131837,76.0
2026-04-18T19:53:24.650,4,30,165634,131837,76.0
2026-04-18T19:53:24.670,4,31,165634,131837,76.0
2026-04-18T19:53:24.690,4,32,164313,130863,76.0
2026-04-18T19:53:24.710,4,33,164313,130863,76.0
2026-04-18T19:53:24.730,4,34,164313,130863,76.0
2026-04-18T19:53:24.750,4,35,164313,130863,76.0
2026-04-18T19:53:24.770,4,36,162839,129100,76.0
2026-04-18T19:53:24.790,4,37,162839,129100,76.0
2026-04-18T19:53:24.810,4,38,162839,129100,76.0
2026-04-18T19:53:24.829,4,39,162839,129100,76.0
2026-04-18T19:53:24.850,4,40,162192,128131,76.0
2026-04-18T19:53:24.869,4,41,162192,128131,76.0
2026-04-18T19:53:24.889,4,42,162192,128131,76.0
2026-04-18T19:53:24.909,4,43,162192,128131,76.0
2026-04-18T19:53:24.930,4,44,162003,127825,76.0
2026-04-18T19:53:24.950,4,45,162003,127825,76.0
2026-04-18T19:53:24.970,4,46,162003,127825,76.0
2026-04-18T19:53:24.989,4,47,162003,127825,76.0
2026-04-18T19:53:25.010,4,48,161889,127598,76.0
2026-04-18T19:53:25.030,4,49,161889,127598,76.0
2026-04-18T19:53:25.049,4,50,161889,127598,76.0
2026-04-18T19:53:25.069,4,51,161889,127598,76.0
2026-04-18T19:53:25.089,4,52,161816,127466,76.0
2026-04-18T19:53:25.109,4,53,161816,127466,76.0
2026-04-18T19:53:25.129,4,54,161816,127466,76.0
2026-04-18T19:53:25.150,4,55,161816,127466,76.0
2026-04-18T19:53:25.169,4,56,161741,127413,76.0
2026-04-18T19:53:25.189,4,57,161741,127413,76.0
2026-04-18T19:53:25.209,4,58,161741,127413,76.0
2026-04-18T19:53:25.229,4,59,161741,127413,76.0
2026-04-18T19:53:25.249,4,60,161610,127182,76.0
2026-04-18T19:53:25.269,4,61,161610,127182,76.0
2026-04-18T19:53:25.289,4,62,161610,127182,76.0
2026-04-18T19:53:25.309,4,63,161610,127182,76.0
2026-04-18T19:53:25.329,4,64,161458,126926,76.0
2026-04-18T19:53:25.349,4,65,161458,126926,76.0
2026-04-18T19:53:25.369,4,66,161458,126926,76.0
2026-04-18T19:53:25.389,4,67,161458,126926,76.0
2026-04-18T19:53:25.409,4,68,161296,126727,76.0
2026-04-18T19:53:25.429,4,69,161296,126727,76.0
2026-04-18T19:53:25.449,4,70,161296,126727,76.0
2026-04-18T19:53:25.469,4,71,161296,126727,76.0
2026-04-18T19:53:25.489,4,72,161102,126512,76.0
2026-04-18T19:53:25.509,4,73,161102,126512,76.0
2026-04-18T19:53:25.529,4,74,161102,126512,76.0
2026-04-18T19:53:25.549,4,75,161102,126512,76.0
2026-04-18T19:53:25.569,4,76,160779,126217,76.0
2026-04-18T19:53:25.589,4,77,160779,126217,76.0
2026-04-18T19:53:25.609,4,78,160779,126217,76.0
2026-04-18T19:53:25.629,4,79,160779,126217,76.0
2026-04-18T19:53:25.649,4,80,160540,126006,76.0
2026-04-18T19:53:25.669,4,81,160540,126006,76.0
2026-04-18T19:53:25.689,4,82,160540,126006,76.0
2026-04-18T19:53:25.709,4,83,160540,126006,76.0
2026-04-18T19:53:25.729,4,84,160427,125872,76.0
2026-04-18T19:53:25.748,4,85,160427,125872,76.0
2026-04-18T19:53:25.769,4,86,160427,125872,76.0
2026-04-18T19:53:25.789,4,87,160427,125872,76.0
2026-04-18T19:53:25.808,4,88,160406,125833,76.0
2026-04-18T19:53:25.829,4,89,160406,125833,76.0
2026-04-18T19:53:25.849,4,90,160406,125833,76.0
2026-04-18T19:53:25.869,4,91,160406,125833,76.0
2026-04-18T19:53:25.888,4,92,160408,125845,76.0
2026-04-18T19:53:25.908,4,93,160408,125845,76.0
2026-04-18T19:53:25.928,4,94,160408,125845,76.0
2026-04-18T19:53:25.948,4,95,160408,125845,76.0
2026-04-18T19:53:25.968,4,96,160430,125872,76.0
2026-04-18T19:53:25.988,4,97,160430,125872,76.0
2026-04-18T19:53:26.009,4,98,160430,125872,76.0
2026-04-18T19:53:26.029,4,99,160430,125872,76.0
2026-04-18T19:53:26.049,4,100,160458,125905,76.0
2026-04-18T19:53:26.069,4,101,160458,125905,76.0
2026-04-18T19:53:26.089,4,102,160458,125905,76.0
2026-04-18T19:53:26.109,4,103,160458,125905,76.0
2026-04-18T19:53:26.128,4,104,160480,125925,76.0
2026-04-18T19:53:26.148,4,105,160480,125925,76.0
2026-04-18T19:53:26.169,4,106,160480,125925,76.0
2026-04-18T19:53:26.188,4,107,160480,125925,76.0
2026-04-18T19:53:26.208,4,108,160482,125954,76.0
2026-04-18T19:53:26.228,4,109,160482,125954,76.0
2026-04-18T19:53:26.248,4,110,160482,125954,76.0
2026-04-18T19:53:26.268,4,111,160482,125954,76.0
2026-04-18T19:53:26.288,4,112,160470,125954,76.0
2026-04-18T19:53:26.308,4,113,160470,125954,76.0
2026-04-18T19:53:26.328,4,114,160470,125954,76.0
2026-04-18T19:53:26.348,4,115,160470,125954,76.0
2026-04-18T19:53:26.368,4,116,160439,125945,76.0
2026-04-18T19:53:26.388,4,117,160439,125945,76.0
2026-04-18T19:53:26.408,4,118,160439,125945,76.0
2026-04-18T19:53:26.428,4,119,160439,125945,76.0
2026-04-18T19:53:26.448,4,120,160407,125936,76.0
2026-04-18T19:53:26.468,4,121,160407,125936,76.0
2026-04-18T19:53:26.488,4,122,160407,125936,76.0
2026-04-18T19:53:26.508,4,123,160407,125936,76.0
2026-04-18T19:53:26.528,4,124,160409,125933,76.0
2026-04-18T19:53:26.548,4,125,160409,125933,76.0
2026-04-18T19:53:26.568,4,126,160409,125933,76.0
2026-04-18T19:53:26.588,4,127,160409,125933,76.0
2026-04-18T19:53:26.608,4,128,160402,125922,76.0
2026-04-18T19:53:26.628,4,129,160402,125922,76.0
2026-04-18T19:53:26.648,4,130,160402,125922,76.0
2026-04-18T19:53:26.668,4,131,160402,125922,76.0
2026-04-18T19:53:26.688,4,132,160493,126078,76.0
2026-04-18T19:53:26.708,4,133,160493,126078,76.0
2026-04-18T19:53:26.728,4,134,160493,126078,76.0
2026-04-18T19:53:26.748,4,135,160493,126078,76.0
2026-04-18T19:53:26.768,4,136,160559,126187,76.0
2026-04-18T19:53:26.788,4,137,160559,126187,76.0
2026-04-18T19:53:26.807,4,138,160559,126187,76.0
2026-04-18T19:53:26.828,4,139,160559,126187,76.0
2026-04-18T19:53:26.848,4,140,160599,126234,76.0
2026-04-18T19:53:26.867,4,141,160599,126234,76.0
2026-04-18T19:53:26.887,4,142,160599,126234,76.0
2026-04-18T19:53:26.907,4,143,160599,126234,76.0
2026-04-18T19:53:26.927,4,144,160620,126311,76.0
2026-04-18T19:53:26.947,4,145,160620,126311,76.0
2026-04-18T19:53:26.967,4,146,160620,126311,76.0
2026-04-18T19:53:26.987,4,147,160620,126311,76.0
2026-04-18T19:53:27.008,4,148,160646,126383,76.0
2026-04-18T19:53:27.028,4,149,160646,126383,76.0
2026-04-18T19:53:27.047,4,150,160646,126383,76.0
2026-04-18T19:53:27.067,4,151,160646,126383,76.0
2026-04-18T19:53:27.087,4,152,160647,126409,76.0
2026-04-18T19:53:27.107,4,153,160647,126409,76.0
2026-04-18T19:53:27.127,4,154,160647,126409,76.0
2026-04-18T19:53:27.148,4,155,160647,126409,76.0
2026-04-18T19:53:27.167,4,156,160638,126433,76.0
2026-04-18T19:53:27.187,4,157,160638,126433,76.0
2026-04-18T19:53:27.207,4,158,160638,126433,76.0
2026-04-18T19:53:27.227,4,159,160638,126433,76.0
2026-04-18T19:53:27.247,4,160,160656,126439,76.0
2026-04-18T19:53:27.267,4,161,160656,126439,76.0
2026-04-18T19:53:27.287,4,162,160656,126439,76.0
2026-04-18T19:53:27.307,4,163,160656,126439,76.0
2026-04-18T19:53:27.327,4,164,160660,126455,76.0
2026-04-18T19:53:27.347,4,165,160660,126455,76.0
2026-04-18T19:53:27.367,4,166,160660,126455,76.0
2026-04-18T19:53:27.387,4,167,160660,126455,76.0
2026-04-18T19:53:27.406,4,168,160664,126449,76.0
2026-04-18T19:53:27.427,4,169,160664,126449,76.0
2026-04-18T19:53:27.447,4,170,160664,126449,76.0
2026-04-18T19:53:27.467,4,171,160664,126449,76.0
2026-04-18T19:53:27.487,4,172,160668,126441,76.0
2026-04-18T19:53:27.507,4,173,160668,126441,76.0
2026-04-18T19:53:27.527,4,174,160668,126441,76.0
2026-04-18T19:53:27.547,4,175,160668,126441,76.0
2026-04-18T19:53:27.567,4,176,160650,126390,76.0
2026-04-18T19:53:27.587,4,177,160650,126390,76.0
2026-04-18T19:53:27.607,4,178,160650,126390,76.0
2026-04-18T19:53:27.626,4,179,160650,126390,76.0
2026-04-18T19:53:27.646,4,180,160660,126382,76.0
2026-04-18T19:53:27.666,4,181,160660,126382,76.0
2026-04-18T19:53:27.686,4,182,160660,126382,76.0
2026-04-18T19:53:27.707,4,183,160660,126382,76.0
2026-04-18T19:53:27.726,4,184,160659,126392,76.0
2026-04-18T19:53:27.747,4,185,160659,126392,76.0
2026-04-18T19:53:27.766,4,186,160659,126392,76.0
2026-04-18T19:53:27.786,4,187,160659,126392,76.0
2026-04-18T19:53:27.807,4,188,160651,126398,76.0
2026-04-18T19:53:27.826,4,189,160651,126398,76.0
2026-04-18T19:53:27.847,4,190,160651,126398,76.0
2026-04-18T19:53:27.867,4,191,160651,126398,76.0
2026-04-18T19:53:27.886,4,192,160624,126386,76.0
2026-04-18T19:53:27.906,4,193,160624,126386,76.0
2026-04-18T19:53:27.926,4,194,160624,126386,76.0
2026-04-18T19:53:27.946,4,195,160624,126386,76.0
2026-04-18T19:53:27.966,4,196,160610,126372,76.0
2026-04-18T19:53:27.986,4,197,160610,126372,76.0
2026-04-18T19:53:28.006,4,198,160610,126372,76.0
2026-04-18T19:53:28.026,4,199,160610,126372,76.0
2026-04-18T19:53:28.046,4,200,160609,126348,76.0
2026-04-18T19:53:28.066,4,201,160609,126348,76.0
2026-04-18T19:53:28.086,4,202,160609,126348,76.0
2026-04-18T19:53:28.106,4,203,160609,126348,76.0
2026-04-18T19:53:28.126,4,204,160591,126335,76.0
2026-04-18T19:53:28.146,4,205,160591,126335,76.0
2026-04-18T19:53:28.167,4,206,160591,126335,76.0
2026-04-18T19:53:28.186,4,207,160591,126335,76.0
2026-04-18T19:53:28.207,4,208,160575,126318,76.0
2026-04-18T19:53:28.226,4,209,160575,126318,76.0
2026-04-18T19:53:28.246,4,210,160575,126318,76.0
2026-04-18T19:53:28.266,4,211,160575,126318,76.0
2026-04-18T19:53:28.286,4,212,160592,126319,76.0
2026-04-18T19:53:28.306,4,213,160592,126319,76.0
2026-04-18T19:53:28.326,4,214,160592,126319,76.0
2026-04-18T19:53:28.346,4,215,160592,126319,76.0
2026-04-18T19:53:28.366,4,216,160605,126327,76.0
2026-04-18T19:53:28.385,4,217,160605,126327,76.0
2026-04-18T19:53:28.406,4,218,160605,126327,76.0
2026-04-18T19:53:28.426,4,219,160605,126327,76.0
2026-04-18T19:53:28.446,4,220,160623,126349,76.0
2026-04-18T19:53:28.466,4,221,160623,126349,76.0
2026-04-18T19:53:28.486,4,222,160623,126349,76.0
2026-04-18T19:53:28.506,4,223,160623,126349,76.0
2026-04-18T19:53:28.526,4,224,160624,126373,76.0
2026-04-18T19:53:28.546,4,225,160624,126373,76.0
2026-04-18T19:53:28.566,4,226,160624,126373,76.0
2026-04-18T19:53:28.586,4,227,160624,126373,76.0
2026-04-18T19:53:28.606,4,228,160640,126399,76.0
2026-04-18T19:53:28.625,4,229,160640,126399,76.0
2026-04-18T19:53:28.646,4,230,160640,126399,76.0
2026-04-18T19:53:28.666,4,231,160640,126399,76.0
2026-04-18T19:53:28.685,4,232,160643,126396,76.0
2026-04-18T19:53:28.706,4,233,160643,126396,76.0
2026-04-18T19:53:28.726,4,234,160643,126396,76.0
2026-04-18T19:53:28.746,4,235,160643,126396,76.0
2026-04-18T19:53:28.765,4,236,160644,126370,76.0
2026-04-18T19:53:28.786,4,237,160644,126370,76.0
2026-04-18T19:53:28.806,4,238,160644,126370,76.0
2026-04-18T19:53:28.825,4,239,160644,126370,76.0
2026-04-18T19:53:28.846,4,240,160624,126316,76.0
2026-04-18T19:53:28.865,4,241,160624,126316,76.0
2026-04-18T19:53:28.885,4,242,160624,126316,76.0
2026-04-18T19:53:28.905,4,243,160624,126316,76.0
2026-04-18T19:53:28.925,4,244,160607,126266,76.0
2026-04-18T19:53:28.945,4,245,160607,126266,76.0
2026-04-18T19:53:28.965,4,246,160607,126266,76.0
2026-04-18T19:53:28.985,4,247,160607,126266,76.0
2026-04-18T19:53:29.005,4,248,160591,126201,76.0
2026-04-18T19:53:29.025,4,249,160591,126201,76.0
2026-04-18T19:53:29.045,4,250,160591,126201,76.0
2026-04-18T19:53:29.065,4,251,160591,126201,76.0
2026-04-18T19:53:29.085,4,252,160576,126149,76.0
2026-04-18T19:53:29.105,4,253,160576,126149,76.0
2026-04-18T19:53:29.125,4,254,160576,126149,76.0
2026-04-18T19:53:29.145,4,255,160576,126149,76.0
2026-04-18T19:53:29.165,4,256,160569,126105,76.0
2026-04-18T19:53:29.185,4,257,160569,126105,76.0
2026-04-18T19:53:29.204,4,258,160569,126105,76.0
2026-04-18T19:53:29.225,4,259,160569,126105,76.0
2026-04-18T19:53:29.245,4,260,160577,126105,76.0
2026-04-18T19:53:29.265,4,261,160577,126105,76.0
2026-04-18T19:53:29.285,4,262,160577,126105,76.0
2026-04-18T19:53:29.305,4,263,160577,126105,76.0
2026-04-18T19:53:29.325,4,264,160563,126116,76.0
2026-04-18T19:53:29.345,4,265,160563,126116,76.0
2026-04-18T19:53:29.365,4,266,160563,126116,76.0
2026-04-18T19:53:29.385,4,267,160563,126116,76.0
2026-04-18T19:53:29.405,4,268,160551,126116,76.0
2026-04-18T19:53:29.425,4,269,160551,126116,76.0
2026-04-18T19:53:29.445,4,270,160551,126116,76.0
2026-04-18T19:53:29.465,4,271,160551,126116,76.0
2026-04-18T19:53:29.485,4,272,160537,126117,76.0
2026-04-18T19:53:29.505,4,273,160537,126117,76.0
2026-04-18T19:53:29.525,4,274,160537,126117,76.0
2026-04-18T19:53:29.545,4,275,160537,126117,76.0
2026-04-18T19:53:29.565,4,276,160518,126089,76.0
2026-04-18T19:53:29.585,4,277,160518,126089,76.0
2026-04-18T19:53:29.605,4,278,160518,126089,76.0
2026-04-18T19:53:29.625,4,279,160518,126089,76.0
2026-04-18T19:53:29.645,4,280,160520,126095,76.0
2026-04-18T19:53:29.665,4,281,160520,126095,76.0
2026-04-18T19:53:29.685,4,282,160520,126095,76.0
2026-04-18T19:53:29.705,4,283,160520,126095,76.0
2026-04-18T19:53:29.724,4,284,160541,126116,76.0
2026-04-18T19:53:29.744,4,285,160541,126116,76.0
2026-04-18T19:53:29.764,4,286,160541,126116,76.0
2026-04-18T19:53:29.784,4,287,160541,126116,76.0
2026-04-18T19:53:29.804,4,288,160524,126100,76.0
2026-04-18T19:53:29.824,4,289,160524,126100,76.0
2026-04-18T19:53:29.844,4,290,160524,126100,76.0
2026-04-18T19:53:29.864,4,291,160524,126100,76.0
2026-04-18T19:53:29.884,4,292,160526,126092,76.0
2026-04-18T19:53:29.904,4,293,160526,126092,76.0
2026-04-18T19:53:29.924,4,294,160526,126092,76.0
2026-04-18T19:53:29.944,4,295,160526,126092,76.0
2026-04-18T19:53:29.964,4,296,160562,126134,76.0
2026-04-18T19:53:29.985,4,297,160562,126134,76.0
2026-04-18T19:53:30.004,4,298,160562,126134,76.0
2026-04-18T19:53:30.024,4,299,160562,126134,76.0
2026-04-18T19:53:30.044,4,300,160593,126213,76.0
2026-04-18T19:53:30.063,4,301,160593,126213,76.0
2026-04-18T19:53:30.084,4,302,160593,126213,76.0
2026-04-18T19:53:30.104,4,303,160593,126213,76.0
2026-04-18T19:53:30.124,4,304,160599,126251,76.0
2026-04-18T19:53:30.144,4,305,160599,126251,76.0
2026-04-18T19:53:30.164,4,306,160599,126251,76.0
2026-04-18T19:53:30.184,4,307,160599,126251,76.0
2026-04-18T19:53:30.204,4,308,160601,126274,76.0
2026-04-18T19:53:30.224,4,309,160601,126274,76.0
2026-04-18T19:53:30.244,4,310,160601,126274,76.0
2026-04-18T19:53:30.264,4,311,160601,126274,76.0
2026-04-18T19:53:30.284,4,312,160611,126297,76.0
2026-04-18T19:53:30.304,4,313,160611,126297,76.0
2026-04-18T19:53:30.324,4,314,160611,126297,76.0
2026-04-18T19:53:30.344,4,315,160611,126297,76.0
2026-04-18T19:53:30.364,4,316,160595,126280,76.0
2026-04-18T19:53:30.384,4,317,160595,126280,76.0
2026-04-18T19:53:30.404,4,318,160595,126280,76.0
2026-04-18T19:53:30.424,4,319,160595,126280,76.0
2026-04-18T19:53:30.443,4,320,160583,126251,76.0
2026-04-18T19:53:30.463,4,321,160583,126251,76.0
2026-04-18T19:53:30.484,4,322,160583,126251,76.0
2026-04-18T19:53:30.504,4,323,160583,126251,76.0
2026-04-18T19:53:30.524,4,324,160577,126248,76.0
2026-04-18T19:53:30.544,4,325,160577,126248,76.0
2026-04-18T19:53:30.564,4,326,160577,126248,76.0
2026-04-18T19:53:30.584,4,327,160577,126248,76.0
2026-04-18T19:53:30.604,4,328,160580,126222,76.0
2026-04-18T19:53:30.623,4,329,160580,126222,76.0
2026-04-18T19:53:30.644,4,330,160580,126222,76.0
2026-04-18T19:53:30.664,4,331,160580,126222,76.0
2026-04-18T19:53:30.684,4,332,160578,126205,76.0
2026-04-18T19:53:30.703,4,333,160578,126205,76.0
2026-04-18T19:53:30.724,4,334,160578,126205,76.0
2026-04-18T19:53:30.744,4,335,160578,126205,76.0
2026-04-18T19:53:30.763,4,336,160591,126213,76.0
2026-04-18T19:53:30.784,4,337,160591,126213,76.0
2026-04-18T19:53:30.804,4,338,160591,126213,76.0
2026-04-18T19:53:30.823,4,339,160591,126213,76.0
2026-04-18T19:53:30.843,4,340,160602,126240,76.0
2026-04-18T19:53:30.863,4,341,160602,126240,76.0
2026-04-18T19:53:30.883,4,342,160602,126240,76.0
2026-04-18T19:53:30.903,4,343,160602,126240,76.0
2026-04-18T19:53:30.923,4,344,160606,126263,76.0
2026-04-18T19:53:30.943,4,345,160606,126263,76.0
2026-04-18T19:53:30.963,4,346,160606,126263,76.0
2026-04-18T19:53:30.983,4,347,160606,126263,76.0
2026-04-18T19:53:31.003,4,348,160599,126258,76.0
2026-04-18T19:53:31.023,4,349,160599,126258,76.0
2026-04-18T19:53:31.043,4,350,160599,126258,76.0
2026-04-18T19:53:31.063,4,351,160599,126258,76.0
2026-04-18T19:53:31.083,4,352,160600,126269,76.0
2026-04-18T19:53:31.103,4,353,160600,126269,76.0
2026-04-18T19:53:31.123,4,354,160600,126269,76.0
2026-04-18T19:53:31.143,4,355,160600,126269,76.0
2026-04-18T19:53:31.163,4,356,160584,126236,76.0
2026-04-18T19:53:31.183,4,357,160584,126236,76.0
2026-04-18T19:53:31.203,4,358,160584,126236,76.0
2026-04-18T19:53:31.223,4,359,160584,126236,76.0
2026-04-18T19:53:31.243,4,360,160585,126213,76.0
2026-04-18T19:53:31.263,4,361,160585,126213,76.0
2026-04-18T19:53:31.283,4,362,160585,126213,76.0
2026-04-18T19:53:31.303,4,363,160585,126213,76.0
2026-04-18T19:53:31.323,4,364,160581,126270,76.0
2026-04-18T19:53:31.343,4,365,160581,126270,76.0
2026-04-18T19:53:31.363,4,366,160581,126270,76.0
2026-04-18T19:53:31.383,4,367,160581,126270,76.0
2026-04-18T19:53:31.403,4,368,160544,126428,76.0
2026-04-18T19:53:31.423,4,369,160544,126428,76.0
2026-04-18T19:53:31.442,4,370,160544,126428,76.0
2026-04-18T19:53:31.462,4,371,160544,126428,76.0
2026-04-18T19:53:31.482,4,372,160597,126961,76.0
2026-04-18T19:53:31.503,4,373,160597,126961,76.0
2026-04-18T19:53:31.523,4,374,160597,126961,76.0
2026-04-18T19:53:31.543,4,375,160597,126961,76.0
2026-04-18T19:53:31.563,4,376,160951,129094,76.0
2026-04-18T19:53:31.583,4,377,160951,129094,76.0
2026-04-18T19:53:31.602,4,378,160951,129094,76.0
2026-04-18T19:53:31.623,4,379,160951,129094,76.0
2026-04-18T19:53:31.643,4,380,161435,130956,76.0
2026-04-18T19:53:31.663,4,381,161435,130956,76.0
2026-04-18T19:53:31.683,4,382,161435,130956,76.0
2026-04-18T19:53:31.703,4,383,161435,130956,76.0
2026-04-18T19:53:31.722,4,384,162583,133171,76.0
2026-04-18T19:53:31.742,4,385,162583,133171,76.0
2026-04-18T19:53:31.763,4,386,162583,133171,76.0
2026-04-18T19:53:31.783,4,387,162583,133171,76.0
2026-04-18T19:53:31.803,4,388,163550,134650,76.0
2026-04-18T19:53:31.822,4,389,163550,134650,76.0
2026-04-18T19:53:31.842,4,390,163550,134650,76.0
2026-04-18T19:53:31.863,4,391,163550,134650,76.0
2026-04-18T19:53:31.882,4,392,165769,137976,76.0
2026-04-18T19:53:31.902,4,393,165769,137976,76.0
2026-04-18T19:53:31.922,4,394,165769,137976,76.0
2026-04-18T19:53:31.942,4,395,165769,137976,76.0
2026-04-18T19:53:31.962,4,396,165783,137996,76.0
2026-04-18T19:53:31.982,4,397,165783,137996,76.0
2026-04-18T19:53:32.002,4,398,165783,137996,76.0
2026-04-18T19:53:32.022,4,399,165783,137996,76.0
2026-04-18T19:53:32.042,4,400,165900,138292,76.0
2026-04-18T19:53:32.062,4,401,165900,138292,76.0
2026-04-18T19:53:32.081,4,402,165900,138292,76.0
2026-04-18T19:53:32.102,4,403,165900,138292,76.0
2026-04-18T19:53:32.122,4,404,165919,138248,76.0
2026-04-18T19:53:32.141,4,405,165919,138248,76.0
2026-04-18T19:53:32.161,4,406,165919,138248,76.0
2026-04-18T19:53:32.182,4,407,165919,138248,76.0
2026-04-18T19:53:32.202,4,408,165700,137797,76.0
2026-04-18T19:53:32.222,4,409,165700,137797,76.0
2026-04-18T19:53:32.242,4,410,165700,137797,76.0
2026-04-18T19:53:32.262,4,411,165700,137797,76.0
2026-04-18T19:53:32.282,4,412,165518,137196,76.0
2026-04-18T19:53:32.302,4,413,165518,137196,76.0
2026-04-18T19:53:32.322,4,414,165518,137196,76.0
2026-04-18T19:53:32.342,4,415,165518,137196,76.0
2026-04-18T19:53:32.362,4,416,165870,137942,76.0
2026-04-18T19:53:32.382,4,417,165870,137942,76.0
2026-04-18T19:53:32.402,4,418,165870,137942,76.0
2026-04-18T19:53:32.422,4,419,165870,137942,76.0
2026-04-18T19:53:32.441,4,420,166142,138468,76.0
2026-04-18T19:53:32.461,4,421,166142,138468,76.0
2026-04-18T19:53:32.482,4,422,166142,138468,76.0
2026-04-18T19:53:32.501,4,423,166142,138468,76.0
2026-04-18T19:53:32.522,4,424,166148,138482,76.0
2026-04-18T19:53:32.541,4,425,166148,138482,76.0
2026-04-18T19:53:32.562,4,426,166148,138482,76.0
2026-04-18T19:53:32.582,4,427,166148,138482,76.0
2026-04-18T19:53:32.602,4,428,166017,138254,76.0
2026-04-18T19:53:32.621,4,429,166017,138254,76.0
2026-04-18T19:53:32.642,4,430,166017,138254,76.0
2026-04-18T19:53:32.662,4,431,166017,138254,76.0
2026-04-18T19:53:32.682,4,432,165443,136622,76.0
2026-04-18T19:53:32.702,4,433,165443,136622,76.0
2026-04-18T19:53:32.721,4,434,165443,136622,76.0
2026-04-18T19:53:32.741,4,435,165443,136622,76.0
2026-04-18T19:53:32.761,4,436,164306,133842,76.0
2026-04-18T19:53:32.782,4,437,164306,133842,76.0
2026-04-18T19:53:32.801,4,438,164306,133842,76.0
2026-04-18T19:53:32.821,4,439,164306,133842,76.0
2026-04-18T19:53:32.842,4,440,163200,131395,76.0
2026-04-18T19:53:32.861,4,441,163200,131395,76.0
2026-04-18T19:53:32.881,4,442,163200,131395,76.0
2026-04-18T19:53:32.901,4,443,163200,131395,76.0
2026-04-18T19:53:32.921,4,444,162365,129767,76.0
2026-04-18T19:53:32.941,4,445,162365,129767,76.0
2026-04-18T19:53:32.961,4,446,162365,129767,76.0
2026-04-18T19:53:32.981,4,447,162365,129767,76.0
2026-04-18T19:53:33.001,4,448,161337,128241,76.0
2026-04-18T19:53:33.021,4,449,161337,128241,76.0
2026-04-18T19:53:33.041,4,450,161337,128241,76.0
2026-04-18T19:53:33.061,4,451,161337,128241,76.0
2026-04-18T19:53:33.081,4,452,160919,127526,76.0
2026-04-18T19:53:33.101,4,453,160919,127526,76.0
2026-04-18T19:53:33.121,4,454,160919,127526,76.0
2026-04-18T19:53:33.141,4,455,160919,127526,76.0
2026-04-18T19:53:33.161,4,456,160701,127242,76.0
2026-04-18T19:53:33.181,4,457,160701,127242,76.0
2026-04-18T19:53:33.201,4,458,160701,127242,76.0
2026-04-18T19:53:33.221,4,459,160701,127242,76.0
2026-04-18T19:53:33.241,4,460,160580,127091,76.0
2026-04-18T19:53:33.261,4,461,160580,127091,76.0
2026-04-18T19:53:33.281,4,462,160580,127091,76.0
2026-04-18T19:53:33.301,4,463,160580,127091,76.0
2026-04-18T19:53:33.321,4,464,160550,127134,76.0
2026-04-18T19:53:33.341,4,465,160550,127134,76.0
2026-04-18T19:53:33.361,4,466,160550,127134,76.0
2026-04-18T19:53:33.381,4,467,160550,127134,76.0
2026-04-18T19:53:33.401,4,468,160542,127199,76.0
2026-04-18T19:53:33.421,4,469,160542,127199,76.0
2026-04-18T19:53:33.441,4,470,160542,127199,76.0
2026-04-18T19:53:33.461,4,471,160542,127199,76.0
2026-04-18T19:53:33.481,4,472,160565,127318,76.0
2026-04-18T19:53:33.501,4,473,160565,127318,76.0
2026-04-18T19:53:33.520,4,474,160565,127318,76.0
2026-04-18T19:53:33.540,4,475,160565,127318,76.0
2026-04-18T19:53:33.561,4,476,160590,127395,76.0
2026-04-18T19:53:33.581,4,477,160590,127395,76.0
2026-04-18T19:53:33.601,4,478,160590,127395,76.0
2026-04-18T19:53:33.621,4,479,160590,127395,76.0
2026-04-18T19:53:33.640,4,480,160507,127297,76.0
2026-04-18T19:53:33.661,4,481,160507,127297,76.0
2026-04-18T19:53:33.681,4,482,160507,127297,76.0
2026-04-18T19:53:33.701,4,483,160507,127297,76.0
2026-04-18T19:53:33.720,4,484,160439,127246,76.0
2026-04-18T19:53:33.740,4,485,160439,127246,76.0
2026-04-18T19:53:33.761,4,486,160439,127246,76.0
2026-04-18T19:53:33.781,4,487,160439,127246,76.0
2026-04-18T19:53:33.801,4,488,160488,127414,76.0
2026-04-18T19:53:33.821,4,489,160488,127414,76.0
2026-04-18T19:53:33.841,4,490,160488,127414,76.0
2026-04-18T19:53:33.860,4,491,160488,127414,76.0
2026-04-18T19:53:33.880,4,492,160493,127601,76.0
2026-04-18T19:53:33.900,4,493,160493,127601,76.0
2026-04-18T19:53:33.920,4,494,160493,127601,76.0
2026-04-18T19:53:33.940,4,495,160493,127601,76.0
2026-04-18T19:53:33.960,4,496,160495,127951,76.0
2026-04-18T19:53:33.980,4,497,160495,127951,76.0
2026-04-18T19:53:34.000,4,498,160495,127951,76.0
2026-04-18T19:53:34.020,4,499,160495,127951,76.0
2026-04-18T19:53:34.040,4,500,160568,128386,76.0
2026-04-18T19:53:36.497,5,0,169366,141030,77.0
2026-04-18T19:53:36.517,5,1,169180,140777,77.0
2026-04-18T19:53:36.537,5,2,169180,140777,77.0
2026-04-18T19:53:36.557,5,3,169180,140777,77.0
2026-04-18T19:53:36.577,5,4,169180,140777,77.0
2026-04-18T19:53:36.597,5,5,168484,139294,77.0
2026-04-18T19:53:36.617,5,6,168484,139294,77.0
2026-04-18T19:53:36.637,5,7,168484,139294,77.0
2026-04-18T19:53:36.657,5,8,168484,139294,77.0
2026-04-18T19:53:36.677,5,9,168169,138560,77.0
2026-04-18T19:53:36.698,5,10,168169,138560,77.0
2026-04-18T19:53:36.718,5,11,168169,138560,77.0
2026-04-18T19:53:36.737,5,12,168169,138560,77.0
2026-04-18T19:53:36.758,5,13,167463,137005,77.0
2026-04-18T19:53:36.777,5,14,167463,137005,77.0
2026-04-18T19:53:36.797,5,15,167463,137005,77.0
2026-04-18T19:53:36.817,5,16,167463,137005,77.0
2026-04-18T19:53:36.837,5,17,166679,135510,77.0
2026-04-18T19:53:36.857,5,18,166679,135510,77.0
2026-04-18T19:53:36.877,5,19,166679,135510,77.0
2026-04-18T19:53:36.897,5,20,166679,135510,77.0
2026-04-18T19:53:36.918,5,21,165717,133774,77.0
2026-04-18T19:53:36.937,5,22,165717,133774,77.0
2026-04-18T19:53:36.957,5,23,165717,133774,77.0
2026-04-18T19:53:36.977,5,24,165717,133774,77.0
2026-04-18T19:53:36.997,5,25,165070,132699,77.0
2026-04-18T19:53:37.017,5,26,165070,132699,77.0
2026-04-18T19:53:37.037,5,27,165070,132699,77.0
2026-04-18T19:53:37.057,5,28,165070,132699,77.0
2026-04-18T19:53:37.077,5,29,163737,131123,77.0
2026-04-18T19:53:37.097,5,30,163737,131123,77.0
2026-04-18T19:53:37.117,5,31,163737,131123,77.0
2026-04-18T19:53:37.137,5,32,163737,131123,77.0
2026-04-18T19:53:37.157,5,33,162937,130078,77.0
2026-04-18T19:53:37.177,5,34,162937,130078,77.0
2026-04-18T19:53:37.197,5,35,162937,130078,77.0
2026-04-18T19:53:37.217,5,36,162937,130078,77.0
2026-04-18T19:53:37.237,5,37,162314,129191,77.0
2026-04-18T19:53:37.257,5,38,162314,129191,77.0
2026-04-18T19:53:37.277,5,39,162314,129191,77.0
2026-04-18T19:53:37.297,5,40,162314,129191,77.0
2026-04-18T19:53:37.316,5,41,161152,127756,77.0
2026-04-18T19:53:37.336,5,42,161152,127756,77.0
2026-04-18T19:53:37.356,5,43,161152,127756,77.0
2026-04-18T19:53:37.377,5,44,161152,127756,77.0
2026-04-18T19:53:37.397,5,45,160921,127436,77.0
2026-04-18T19:53:37.417,5,46,160921,127436,77.0
2026-04-18T19:53:37.437,5,47,160921,127436,77.0
2026-04-18T19:53:37.456,5,48,160921,127436,77.0
2026-04-18T19:53:37.477,5,49,160810,127338,77.0
2026-04-18T19:53:37.496,5,50,160810,127338,77.0
2026-04-18T19:53:37.516,5,51,160810,127338,77.0
2026-04-18T19:53:37.536,5,52,160810,127338,77.0
2026-04-18T19:53:37.557,5,53,160645,127142,77.0
2026-04-18T19:53:37.577,5,54,160645,127142,77.0
2026-04-18T19:53:37.596,5,55,160645,127142,77.0
2026-04-18T19:53:37.616,5,56,160645,127142,77.0
2026-04-18T19:53:37.636,5,57,160535,126988,77.0
2026-04-18T19:53:37.656,5,58,160535,126988,77.0
2026-04-18T19:53:37.677,5,59,160535,126988,77.0
2026-04-18T19:53:37.696,5,60,160535,126988,77.0
2026-04-18T19:53:37.716,5,61,160531,127124,77.0
2026-04-18T19:53:37.736,5,62,160531,127124,77.0
2026-04-18T19:53:37.756,5,63,160531,127124,77.0
2026-04-18T19:53:37.776,5,64,160531,127124,77.0
2026-04-18T19:53:37.796,5,65,160506,127151,77.0
2026-04-18T19:53:37.816,5,66,160506,127151,77.0
2026-04-18T19:53:37.836,5,67,160506,127151,77.0
2026-04-18T19:53:37.856,5,68,160506,127151,77.0
2026-04-18T19:53:37.876,5,69,160394,126909,77.0
2026-04-18T19:53:37.896,5,70,160394,126909,77.0
2026-04-18T19:53:37.916,5,71,160394,126909,77.0
2026-04-18T19:53:37.936,5,72,160394,126909,77.0
2026-04-18T19:53:37.956,5,73,160325,126747,77.0
2026-04-18T19:53:37.976,5,74,160325,126747,77.0
2026-04-18T19:53:37.996,5,75,160325,126747,77.0
2026-04-18T19:53:38.016,5,76,160325,126747,77.0
2026-04-18T19:53:38.036,5,77,160221,126616,77.0
2026-04-18T19:53:38.056,5,78,160221,126616,77.0
2026-04-18T19:53:38.076,5,79,160221,126616,77.0
2026-04-18T19:53:38.096,5,80,160221,126616,77.0
2026-04-18T19:53:38.116,5,81,160188,126546,77.0
2026-04-18T19:53:38.136,5,82,160188,126546,77.0
2026-04-18T19:53:38.156,5,83,160188,126546,77.0
2026-04-18T19:53:38.176,5,84,160188,126546,77.0
2026-04-18T19:53:38.196,5,85,160173,126480,77.0
2026-04-18T19:53:38.216,5,86,160173,126480,77.0
2026-04-18T19:53:38.236,5,87,160173,126480,77.0
2026-04-18T19:53:38.256,5,88,160173,126480,77.0
2026-04-18T19:53:38.275,5,89,160134,126375,77.0
2026-04-18T19:53:38.295,5,90,160134,126375,77.0
2026-04-18T19:53:38.315,5,91,160134,126375,77.0
2026-04-18T19:53:38.336,5,92,160134,126375,77.0
2026-04-18T19:53:38.355,5,93,160117,126323,77.0
2026-04-18T19:53:38.375,5,94,160117,126323,77.0
2026-04-18T19:53:38.395,5,95,160117,126323,77.0
2026-04-18T19:53:38.415,5,96,160117,126323,77.0
2026-04-18T19:53:38.436,5,97,160116,126372,77.0
2026-04-18T19:53:38.456,5,98,160116,126372,77.0
2026-04-18T19:53:38.475,5,99,160116,126372,77.0
2026-04-18T19:53:38.495,5,100,160116,126372,77.0
2026-04-18T19:53:38.515,5,101,160204,126463,77.0
2026-04-18T19:53:38.535,5,102,160204,126463,77.0
2026-04-18T19:53:38.555,5,103,160204,126463,77.0
2026-04-18T19:53:38.575,5,104,160204,126463,77.0
2026-04-18T19:53:38.596,5,105,160253,126518,77.0
2026-04-18T19:53:38.615,5,106,160253,126518,77.0
2026-04-18T19:53:38.635,5,107,160253,126518,77.0
2026-04-18T19:53:38.655,5,108,160253,126518,77.0
2026-04-18T19:53:38.675,5,109,160331,126607,77.0
2026-04-18T19:53:38.695,5,110,160331,126607,77.0
2026-04-18T19:53:38.715,5,111,160331,126607,77.0
2026-04-18T19:53:38.735,5,112,160331,126607,77.0
2026-04-18T19:53:38.755,5,113,160461,126853,77.0
2026-04-18T19:53:38.775,5,114,160461,126853,77.0
2026-04-18T19:53:38.795,5,115,160461,126853,77.0
2026-04-18T19:53:38.815,5,116,160461,126853,77.0
2026-04-18T19:53:38.835,5,117,160540,126978,77.0
2026-04-18T19:53:38.855,5,118,160540,126978,77.0
2026-04-18T19:53:38.875,5,119,160540,126978,77.0
2026-04-18T19:53:38.895,5,120,160540,126978,77.0
2026-04-18T19:53:38.915,5,121,160603,127092,77.0
2026-04-18T19:53:38.935,5,122,160603,127092,77.0
2026-04-18T19:53:38.955,5,123,160603,127092,77.0
2026-04-18T19:53:38.975,5,124,160603,127092,77.0
2026-04-18T19:53:38.995,5,125,160672,127238,77.0
2026-04-18T19:53:39.015,5,126,160672,127238,77.0
2026-04-18T19:53:39.035,5,127,160672,127238,77.0
2026-04-18T19:53:39.055,5,128,160672,127238,77.0
2026-04-18T19:53:39.075,5,129,160756,127395,77.0
2026-04-18T19:53:39.095,5,130,160756,127395,77.0
2026-04-18T19:53:39.115,5,131,160756,127395,77.0
2026-04-18T19:53:39.134,5,132,160756,127395,77.0
2026-04-18T19:53:39.154,5,133,160750,127385,77.0
2026-04-18T19:53:39.174,5,134,160750,127385,77.0
2026-04-18T19:53:39.194,5,135,160750,127385,77.0
2026-04-18T19:53:39.214,5,136,160750,127385,77.0
2026-04-18T19:53:39.234,5,137,160737,127315,77.0
2026-04-18T19:53:39.254,5,138,160737,127315,77.0
2026-04-18T19:53:39.274,5,139,160737,127315,77.0
2026-04-18T19:53:39.294,5,140,160737,127315,77.0
2026-04-18T19:53:39.314,5,141,160724,127258,77.0
2026-04-18T19:53:39.334,5,142,160724,127258,77.0
2026-04-18T19:53:39.354,5,143,160724,127258,77.0
2026-04-18T19:53:39.374,5,144,160724,127258,77.0
2026-04-18T19:53:39.394,5,145,160684,127122,77.0
2026-04-18T19:53:39.414,5,146,160684,127122,77.0
2026-04-18T19:53:39.434,5,147,160684,127122,77.0
2026-04-18T19:53:39.454,5,148,160684,127122,77.0
2026-04-18T19:53:39.474,5,149,160648,126985,77.0
2026-04-18T19:53:39.494,5,150,160648,126985,77.0
2026-04-18T19:53:39.514,5,151,160648,126985,77.0
2026-04-18T19:53:39.534,5,152,160648,126985,77.0
2026-04-18T19:53:39.555,5,153,160634,126946,77.0
2026-04-18T19:53:39.574,5,154,160634,126946,77.0
2026-04-18T19:53:39.595,5,155,160634,126946,77.0
2026-04-18T19:53:39.614,5,156,160634,126946,77.0
2026-04-18T19:53:39.634,5,157,160605,126888,77.0
2026-04-18T19:53:39.655,5,158,160605,126888,77.0
2026-04-18T19:53:39.674,5,159,160605,126888,77.0
2026-04-18T19:53:39.694,5,160,160605,126888,77.0
2026-04-18T19:53:39.714,5,161,160554,126834,77.0
2026-04-18T19:53:39.734,5,162,160554,126834,77.0
2026-04-18T19:53:39.754,5,163,160554,126834,77.0
2026-04-18T19:53:39.774,5,164,160554,126834,77.0
2026-04-18T19:53:39.794,5,165,160499,126750,77.0
2026-04-18T19:53:39.814,5,166,160499,126750,77.0
2026-04-18T19:53:39.834,5,167,160499,126750,77.0
2026-04-18T19:53:39.854,5,168,160499,126750,77.0
2026-04-18T19:53:39.874,5,169,160423,126612,77.0
2026-04-18T19:53:39.894,5,170,160423,126612,77.0
2026-04-18T19:53:39.914,5,171,160423,126612,77.0
2026-04-18T19:53:39.935,5,172,160423,126612,77.0
2026-04-18T19:53:39.954,5,173,160370,126519,77.0
2026-04-18T19:53:39.974,5,174,160370,126519,77.0
2026-04-18T19:53:39.994,5,175,160370,126519,77.0
2026-04-18T19:53:40.014,5,176,160370,126519,77.0
2026-04-18T19:53:40.034,5,177,160336,126449,77.0
2026-04-18T19:53:40.054,5,178,160336,126449,77.0
2026-04-18T19:53:40.074,5,179,160336,126449,77.0
2026-04-18T19:53:40.093,5,180,160336,126449,77.0
2026-04-18T19:53:40.113,5,181,160325,126427,77.0
2026-04-18T19:53:40.133,5,182,160325,126427,77.0
2026-04-18T19:53:40.154,5,183,160325,126427,77.0
2026-04-18T19:53:40.174,5,184,160325,126427,77.0
2026-04-18T19:53:40.194,5,185,160342,126455,77.0
2026-04-18T19:53:40.214,5,186,160342,126455,77.0
2026-04-18T19:53:40.234,5,187,160342,126455,77.0
2026-04-18T19:53:40.253,5,188,160342,126455,77.0
2026-04-18T19:53:40.273,5,189,160432,126755,77.0
2026-04-18T19:53:40.294,5,190,160432,126755,77.0
2026-04-18T19:53:40.313,5,191,160432,126755,77.0
2026-04-18T19:53:40.333,5,192,160432,126755,77.0
2026-04-18T19:53:40.353,5,193,160457,127030,77.0
2026-04-18T19:53:40.373,5,194,160457,127030,77.0
2026-04-18T19:53:40.394,5,195,160457,127030,77.0
2026-04-18T19:53:40.414,5,196,160457,127030,77.0
2026-04-18T19:53:40.433,5,197,160400,126890,77.0
2026-04-18T19:53:40.453,5,198,160400,126890,77.0
2026-04-18T19:53:40.473,5,199,160400,126890,77.0
2026-04-18T19:53:40.493,5,200,160400,126890,77.0
2026-04-18T19:53:40.513,5,201,160430,127034,77.0
2026-04-18T19:53:40.533,5,202,160430,127034,77.0
2026-04-18T19:53:40.554,5,203,160430,127034,77.0
2026-04-18T19:53:40.573,5,204,160430,127034,77.0
2026-04-18T19:53:40.593,5,205,160418,127088,77.0
2026-04-18T19:53:40.614,5,206,160418,127088,77.0
2026-04-18T19:53:40.634,5,207,160418,127088,77.0
2026-04-18T19:53:40.653,5,208,160418,127088,77.0
2026-04-18T19:53:40.673,5,209,160382,127016,77.0
2026-04-18T19:53:40.693,5,210,160382,127016,77.0
2026-04-18T19:53:40.713,5,211,160382,127016,77.0
2026-04-18T19:53:40.733,5,212,160382,127016,77.0
2026-04-18T19:53:40.753,5,213,160376,126988,77.0
2026-04-18T19:53:40.773,5,214,160376,126988,77.0
2026-04-18T19:53:40.793,5,215,160376,126988,77.0
2026-04-18T19:53:40.813,5,216,160376,126988,77.0
2026-04-18T19:53:40.833,5,217,160350,126874,77.0
2026-04-18T19:53:40.853,5,218,160350,126874,77.0
2026-04-18T19:53:40.873,5,219,160350,126874,77.0
2026-04-18T19:53:40.893,5,220,160350,126874,77.0
2026-04-18T19:53:40.912,5,221,160307,126721,77.0
2026-04-18T19:53:40.932,5,222,160307,126721,77.0
2026-04-18T19:53:40.952,5,223,160307,126721,77.0
2026-04-18T19:53:40.973,5,224,160307,126721,77.0
2026-04-18T19:53:40.992,5,225,160342,126799,77.0
2026-04-18T19:53:41.013,5,226,160342,126799,77.0
2026-04-18T19:53:41.033,5,227,160342,126799,77.0
2026-04-18T19:53:41.053,5,228,160342,126799,77.0
2026-04-18T19:53:41.072,5,229,160390,126894,77.0
2026-04-18T19:53:41.092,5,230,160390,126894,77.0
2026-04-18T19:53:41.113,5,231,160390,126894,77.0
2026-04-18T19:53:41.133,5,232,160390,126894,77.0
2026-04-18T19:53:41.152,5,233,160428,126998,77.0
2026-04-18T19:53:41.173,5,234,160428,126998,77.0
2026-04-18T19:53:41.193,5,235,160428,126998,77.0
2026-04-18T19:53:41.212,5,236,160428,126998,77.0
2026-04-18T19:53:41.233,5,237,160492,127131,77.0
2026-04-18T19:53:41.252,5,238,160492,127131,77.0
2026-04-18T19:53:41.273,5,239,160492,127131,77.0
2026-04-18T19:53:41.293,5,240,160492,127131,77.0
2026-04-18T19:53:41.312,5,241,160588,127280,77.0
2026-04-18T19:53:41.333,5,242,160588,127280,77.0
2026-04-18T19:53:41.352,5,243,160588,127280,77.0
2026-04-18T19:53:41.372,5,244,160588,127280,77.0
2026-04-18T19:53:41.393,5,245,160639,127352,77.0
2026-04-18T19:53:41.412,5,246,160639,127352,77.0
2026-04-18T19:53:41.432,5,247,160639,127352,77.0
2026-04-18T19:53:41.453,5,248,160639,127352,77.0
2026-04-18T19:53:41.472,5,249,160701,127471,77.0
2026-04-18T19:53:41.492,5,250,160701,127471,77.0
2026-04-18T19:53:41.512,5,251,160701,127471,77.0
2026-04-18T19:53:41.532,5,252,160701,127471,77.0
2026-04-18T19:53:41.552,5,253,160718,127485,77.0
2026-04-18T19:53:41.572,5,254,160718,127485,77.0
2026-04-18T19:53:41.592,5,255,160718,127485,77.0
2026-04-18T19:53:41.612,5,256,160718,127485,77.0
2026-04-18T19:53:41.632,5,257,160733,127466,77.0
2026-04-18T19:53:41.652,5,258,160733,127466,77.0
2026-04-18T19:53:41.672,5,259,160733,127466,77.0
2026-04-18T19:53:41.692,5,260,160733,127466,77.0
2026-04-18T19:53:41.712,5,261,160770,127498,77.0
2026-04-18T19:53:41.732,5,262,160770,127498,77.0
2026-04-18T19:53:41.752,5,263,160770,127498,77.0
2026-04-18T19:53:41.772,5,264,160770,127498,77.0
2026-04-18T19:53:41.792,5,265,160840,127622,77.0
2026-04-18T19:53:41.812,5,266,160840,127622,77.0
2026-04-18T19:53:41.832,5,267,160840,127622,77.0
2026-04-18T19:53:41.851,5,268,160840,127622,77.0
2026-04-18T19:53:41.872,5,269,160868,127734,77.0
2026-04-18T19:53:41.892,5,270,160868,127734,77.0
2026-04-18T19:53:41.912,5,271,160868,127734,77.0
2026-04-18T19:53:41.932,5,272,160868,127734,77.0
2026-04-18T19:53:41.952,5,273,160903,127833,77.0
2026-04-18T19:53:41.971,5,274,160903,127833,77.0
2026-04-18T19:53:41.992,5,275,160903,127833,77.0
2026-04-18T19:53:42.012,5,276,160903,127833,77.0
2026-04-18T19:53:42.032,5,277,160932,127930,77.0
2026-04-18T19:53:42.052,5,278,160932,127930,77.0
2026-04-18T19:53:42.072,5,279,160932,127930,77.0
2026-04-18T19:53:42.091,5,280,160932,127930,77.0
2026-04-18T19:53:42.112,5,281,160917,127905,77.0
2026-04-18T19:53:42.132,5,282,160917,127905,77.0
2026-04-18T19:53:42.151,5,283,160917,127905,77.0
2026-04-18T19:53:42.172,5,284,160917,127905,77.0
2026-04-18T19:53:42.192,5,285,160826,127621,77.0
2026-04-18T19:53:42.212,5,286,160826,127621,77.0
2026-04-18T19:53:42.231,5,287,160826,127621,77.0
2026-04-18T19:53:42.251,5,288,160826,127621,77.0
2026-04-18T19:53:42.272,5,289,160687,127358,77.0
2026-04-18T19:53:42.292,5,290,160687,127358,77.0
2026-04-18T19:53:42.312,5,291,160687,127358,77.0
2026-04-18T19:53:42.332,5,292,160687,127358,77.0
2026-04-18T19:53:42.351,5,293,160579,127146,77.0
2026-04-18T19:53:42.371,5,294,160579,127146,77.0
2026-04-18T19:53:42.391,5,295,160579,127146,77.0
2026-04-18T19:53:42.411,5,296,160579,127146,77.0
2026-04-18T19:53:42.431,5,297,160476,126957,77.0
2026-04-18T19:53:42.451,5,298,160476,126957,77.0
2026-04-18T19:53:42.471,5,299,160476,126957,77.0
2026-04-18T19:53:42.491,5,300,160476,126957,77.0
2026-04-18T19:53:42.511,5,301,160366,126696,77.0
2026-04-18T19:53:42.531,5,302,160366,126696,77.0
2026-04-18T19:53:42.551,5,303,160366,126696,77.0
2026-04-18T19:53:42.571,5,304,160366,126696,77.0
2026-04-18T19:53:42.591,5,305,160330,126659,77.0
2026-04-18T19:53:42.611,5,306,160330,126659,77.0
2026-04-18T19:53:42.631,5,307,160330,126659,77.0
2026-04-18T19:53:42.651,5,308,160330,126659,77.0
2026-04-18T19:53:42.671,5,309,160316,126654,77.0
2026-04-18T19:53:42.691,5,310,160316,126654,77.0
2026-04-18T19:53:42.711,5,311,160316,126654,77.0
2026-04-18T19:53:42.731,5,312,160316,126654,77.0
2026-04-18T19:53:42.751,5,313,160271,126606,77.0
2026-04-18T19:53:42.771,5,314,160271,126606,77.0
2026-04-18T19:53:42.791,5,315,160271,126606,77.0
2026-04-18T19:53:42.811,5,316,160271,126606,77.0
2026-04-18T19:53:42.831,5,317,160215,126561,77.0
2026-04-18T19:53:42.851,5,318,160215,126561,77.0
2026-04-18T19:53:42.871,5,319,160215,126561,77.0
2026-04-18T19:53:42.891,5,320,160215,126561,77.0
2026-04-18T19:53:42.911,5,321,160150,126466,77.0
2026-04-18T19:53:42.931,5,322,160150,126466,77.0
2026-04-18T19:53:42.951,5,323,160150,126466,77.0
2026-04-18T19:53:42.971,5,324,160150,126466,77.0
2026-04-18T19:53:42.991,5,325,160107,126383,77.0
2026-04-18T19:53:43.011,5,326,160107,126383,77.0
2026-04-18T19:53:43.031,5,327,160107,126383,77.0
2026-04-18T19:53:43.051,5,328,160107,126383,77.0
2026-04-18T19:53:43.071,5,329,160089,126360,77.0
2026-04-18T19:53:43.091,5,330,160089,126360,77.0
2026-04-18T19:53:43.110,5,331,160089,126360,77.0
2026-04-18T19:53:43.130,5,332,160089,126360,77.0
2026-04-18T19:53:43.150,5,333,160061,126290,77.0
2026-04-18T19:53:43.170,5,334,160061,126290,77.0
2026-04-18T19:53:43.190,5,335,160061,126290,77.0
2026-04-18T19:53:43.210,5,336,160061,126290,77.0
2026-04-18T19:53:43.231,5,337,160053,126245,77.0
2026-04-18T19:53:43.250,5,338,160053,126245,77.0
2026-04-18T19:53:43.270,5,339,160053,126245,77.0
2026-04-18T19:53:43.291,5,340,160053,126245,77.0
2026-04-18T19:53:43.310,5,341,160073,126273,77.0
2026-04-18T19:53:43.331,5,342,160073,126273,77.0
2026-04-18T19:53:43.350,5,343,160073,126273,77.0
2026-04-18T19:53:43.370,5,344,160073,126273,77.0
2026-04-18T19:53:43.390,5,345,160145,126428,77.0
2026-04-18T19:53:43.410,5,346,160145,126428,77.0
2026-04-18T19:53:43.430,5,347,160145,126428,77.0
2026-04-18T19:53:43.450,5,348,160145,126428,77.0
2026-04-18T19:53:43.470,5,349,160177,126516,77.0
2026-04-18T19:53:43.490,5,350,160177,126516,77.0
2026-04-18T19:53:43.510,5,351,160177,126516,77.0
2026-04-18T19:53:43.530,5,352,160177,126516,77.0
2026-04-18T19:53:43.550,5,353,160166,126548,77.0
2026-04-18T19:53:43.570,5,354,160166,126548,77.0
2026-04-18T19:53:43.590,5,355,160166,126548,77.0
2026-04-18T19:53:43.610,5,356,160166,126548,77.0
2026-04-18T19:53:43.630,5,357,160243,126753,77.0
2026-04-18T19:53:43.650,5,358,160243,126753,77.0
2026-04-18T19:53:43.670,5,359,160243,126753,77.0
2026-04-18T19:53:43.690,5,360,160243,126753,77.0
2026-04-18T19:53:43.710,5,361,160290,126862,77.0
2026-04-18T19:53:43.730,5,362,160290,126862,77.0
2026-04-18T19:53:43.750,5,363,160290,126862,77.0
2026-04-18T19:53:43.770,5,364,160290,126862,77.0
2026-04-18T19:53:43.790,5,365,160442,127269,77.0
2026-04-18T19:53:43.810,5,366,160442,127269,77.0
2026-04-18T19:53:43.829,5,367,160442,127269,77.0
2026-04-18T19:53:43.850,5,368,160442,127269,77.0
2026-04-18T19:53:43.870,5,369,160607,127899,77.0
2026-04-18T19:53:43.890,5,370,160607,127899,77.0
2026-04-18T19:53:43.910,5,371,160607,127899,77.0
2026-04-18T19:53:43.930,5,372,160607,127899,77.0
2026-04-18T19:53:43.950,5,373,160632,128057,77.0
2026-04-18T19:53:43.970,5,374,160632,128057,77.0
2026-04-18T19:53:43.990,5,375,160632,128057,77.0
2026-04-18T19:53:44.010,5,376,160632,128057,77.0
2026-04-18T19:53:44.030,5,377,160657,128105,77.0
2026-04-18T19:53:44.050,5,378,160657,128105,77.0
2026-04-18T19:53:44.069,5,379,160657,128105,77.0
2026-04-18T19:53:44.090,5,380,160657,128105,77.0
2026-04-18T19:53:44.110,5,381,160672,128090,77.0
2026-04-18T19:53:44.130,5,382,160672,128090,77.0
2026-04-18T19:53:44.149,5,383,160672,128090,77.0
2026-04-18T19:53:44.170,5,384,160672,128090,77.0
2026-04-18T19:53:44.190,5,385,160725,128182,77.0
2026-04-18T19:53:44.209,5,386,160725,128182,77.0
2026-04-18T19:53:44.230,5,387,160725,128182,77.0
2026-04-18T19:53:44.250,5,388,160725,128182,77.0
2026-04-18T19:53:44.269,5,389,160795,128350,77.0
2026-04-18T19:53:44.289,5,390,160795,128350,77.0
2026-04-18T19:53:44.309,5,391,160795,128350,77.0
2026-04-18T19:53:44.329,5,392,160795,128350,77.0
2026-04-18T19:53:44.349,5,393,160853,128498,77.0
2026-04-18T19:53:44.369,5,394,160853,128498,77.0
2026-04-18T19:53:44.389,5,395,160853,128498,77.0
2026-04-18T19:53:44.409,5,396,160853,128498,77.0
2026-04-18T19:53:44.429,5,397,160908,128590,77.0
2026-04-18T19:53:44.449,5,398,160908,128590,77.0
2026-04-18T19:53:44.468,5,399,160908,128590,77.0
2026-04-18T19:53:44.488,5,400,160908,128590,77.0
2026-04-18T19:53:44.509,5,401,160904,128528,77.0
2026-04-18T19:53:44.529,5,402,160904,128528,77.0
2026-04-18T19:53:44.549,5,403,160904,128528,77.0
2026-04-18T19:53:44.569,5,404,160904,128528,77.0
2026-04-18T19:53:44.589,5,405,160855,128401,77.0
2026-04-18T19:53:44.609,5,406,160855,128401,77.0
2026-04-18T19:53:44.629,5,407,160855,128401,77.0
2026-04-18T19:53:44.649,5,408,160855,128401,77.0
2026-04-18T19:53:44.669,5,409,160847,128334,77.0
2026-04-18T19:53:44.689,5,410,160847,128334,77.0
2026-04-18T19:53:44.709,5,411,160847,128334,77.0
2026-04-18T19:53:44.729,5,412,160847,128334,77.0
2026-04-18T19:53:44.749,5,413,160816,128263,77.0
2026-04-18T19:53:44.769,5,414,160816,128263,77.0
2026-04-18T19:53:44.789,5,415,160816,128263,77.0
2026-04-18T19:53:44.809,5,416,160816,128263,77.0
2026-04-18T19:53:44.829,5,417,160805,128165,77.0
2026-04-18T19:53:44.848,5,418,160805,128165,77.0
2026-04-18T19:53:44.869,5,419,160805,128165,77.0
2026-04-18T19:53:44.889,5,420,160805,128165,77.0
2026-04-18T19:53:44.908,5,421,160829,128115,77.0
2026-04-18T19:53:44.928,5,422,160829,128115,77.0
2026-04-18T19:53:44.949,5,423,160829,128115,77.0
2026-04-18T19:53:44.968,5,424,160829,128115,77.0
2026-04-18T19:53:44.988,5,425,160914,128236,77.0
2026-04-18T19:53:45.008,5,426,160914,128236,77.0
2026-04-18T19:53:45.029,5,427,160914,128236,77.0
2026-04-18T19:53:45.048,5,428,160914,128236,77.0
2026-04-18T19:53:45.068,5,429,160940,128324,77.0
2026-04-18T19:53:45.089,5,430,160940,128324,77.0
2026-04-18T19:53:45.108,5,431,160940,128324,77.0
2026-04-18T19:53:45.128,5,432,160940,128324,77.0
2026-04-18T19:53:45.149,5,433,160992,128462,77.0
2026-04-18T19:53:45.168,5,434,160992,128462,77.0
2026-04-18T19:53:45.188,5,435,160992,128462,77.0
2026-04-18T19:53:45.208,5,436,160992,128462,77.0
2026-04-18T19:53:45.228,5,437,161007,128535,77.0
2026-04-18T19:53:45.249,5,438,161007,128535,77.0
2026-04-18T19:53:45.268,5,439,161007,128535,77.0
2026-04-18T19:53:45.288,5,440,161007,128535,77.0
2026-04-18T19:53:45.308,5,441,160990,128480,77.0
2026-04-18T19:53:45.328,5,442,160990,128480,77.0
2026-04-18T19:53:45.348,5,443,160990,128480,77.0
2026-04-18T19:53:45.368,5,444,160990,128480,77.0
2026-04-18T19:53:45.388,5,445,160894,128246,77.0
2026-04-18T19:53:45.408,5,446,160894,128246,77.0
2026-04-18T19:53:45.428,5,447,160894,128246,77.0
2026-04-18T19:53:45.448,5,448,160894,128246,77.0
2026-04-18T19:53:45.468,5,449,160779,127987,77.0
2026-04-18T19:53:45.487,5,450,160779,127987,77.0
2026-04-18T19:53:45.508,5,451,160779,127987,77.0
