timestamp,window,sample,ir_raw,red_raw
2026-04-19T00:02:54.810,1,0,165287,161343
2026-04-19T00:02:54.820,1,1,165287,161343
2026-04-19T00:02:54.830,1,2,165287,161343
2026-04-19T00:02:54.840,1,3,165287,161343
2026-04-19T00:02:54.850,1,4,165274,161453
2026-04-19T00:02:54.860,1,5,165274,161453
2026-04-19T00:02:54.870,1,6,165274,161453
2026-04-19T00:02:54.880,1,7,165274,161453
2026-04-19T00:02:54.890,1,8,165403,161598
2026-04-19T00:02:54.900,1,9,165403,161598
2026-04-19T00:02:54.910,1,10,165403,161598
2026-04-19T00:02:54.920,1,11,165403,161598
2026-04-19T00:02:54.930,1,12,165532,161709
2026-04-19T00:02:54.940,1,13,165532,161709
2026-04-19T00:02:54.950,1,14,165532,161709
2026-04-19T00:02:54.960,1,15,165532,161709
2026-04-19T00:02:54.970,1,16,165574,161774
2026-04-19T00:02:54.980,1,17,165574,161774
2026-04-19T00:02:54.990,1,18,165574,161774
2026-04-19T00:02:55.000,1,19,165574,161774
2026-04-19T00:02:55.010,1,20,165659,161849
2026-04-19T00:02:55.020,1,21,165659,161849
2026-04-19T00:02:55.030,1,22,165659,161849
2026-04-19T00:02:55.040,1,23,165659,161849
2026-04-19T00:02:55.050,1,24,165752,161934
2026-04-19T00:02:55.060,1,25,165752,161934
2026-04-19T00:02:55.069,1,26,165752,161934
2026-04-19T00:02:55.079,1,27,165752,161934
2026-04-19T00:02:55.089,1,28,165954,162005
2026-04-19T00:02:55.100,1,29,165954,162005
2026-04-19T00:02:55.110,1,30,165954,162005
2026-04-19T00:02:55.120,1,31,165954,162005
2026-04-19T00:02:55.130,1,32,166411,162051
2026-04-19T00:02:55.140,1,33,166411,162051
2026-04-19T00:02:55.150,1,34,166411,162051
2026-04-19T00:02:55.160,1,35,166411,162051
2026-04-19T00:02:55.170,1,36,166430,162066
2026-04-19T00:02:55.180,1,37,166430,162066
2026-04-19T00:02:55.190,1,38,166430,162066
2026-04-19T00:02:55.199,1,39,166430,162066
2026-04-19T00:02:55.210,1,40,166175,162050
2026-04-19T00:02:55.220,1,41,166175,162050
2026-04-19T00:02:55.230,1,42,166175,162050
2026-04-19T00:02:55.240,1,43,166175,162050
2026-04-19T00:02:55.250,1,44,166131,162017
2026-04-19T00:02:55.260,1,45,166131,162017
2026-04-19T00:02:55.270,1,46,166131,162017
2026-04-19T00:02:55.279,1,47,166131,162017
2026-04-19T00:02:55.290,1,48,166091,161989
2026-04-19T00:02:55.299,1,49,166091,161989
2026-04-19T00:02:55.309,1,50,166091,161989
2026-04-19T00:02:55.319,1,51,166091,161989
2026-04-19T00:02:55.330,1,52,166729,162022
2026-04-19T00:02:55.340,1,53,166729,162022
2026-04-19T00:02:55.350,1,54,166729,162022
2026-04-19T00:02:55.360,1,55,166729,162022
2026-04-19T00:02:55.369,1,56,166793,162008
2026-04-19T00:02:55.379,1,57,166793,162008
2026-04-19T00:02:55.390,1,58,166793,162008
2026-04-19T00:02:55.399,1,59,166793,162008
2026-04-19T00:02:55.409,1,60,166864,161942
2026-04-19T00:02:55.420,1,61,166864,161942
2026-04-19T00:02:55.429,1,62,166864,161942
2026-04-19T00:02:55.439,1,63,166864,161942
2026-04-19T00:02:55.449,1,64,166919,161924
2026-04-19T00:02:55.459,1,65,166919,161924
2026-04-19T00:02:55.469,1,66,166919,161924
2026-04-19T00:02:55.480,1,67,166919,161924
2026-04-19T00:02:55.489,1,68,166956,161891
2026-04-19T00:02:55.499,1,69,166956,161891
2026-04-19T00:02:55.509,1,70,166956,161891
2026-04-19T00:02:55.519,1,71,166956,161891
2026-04-19T00:02:55.529,1,72,166956,161849
2026-04-19T00:02:55.539,1,73,166956,161849
2026-04-19T00:02:55.549,1,74,166956,161849
2026-04-19T00:02:55.559,1,75,166956,161849
2026-04-19T00:02:55.569,1,76,166918,161824
2026-04-19T00:02:55.579,1,77,166918,161824
2026-04-19T00:02:55.589,1,78,166918,161824
2026-04-19T00:02:55.599,1,79,166918,161824
2026-04-19T00:02:55.609,1,80,166913,161778
2026-04-19T00:02:55.619,1,81,166913,161778
2026-04-19T00:02:55.629,1,82,166913,161778
2026-04-19T00:02:55.639,1,83,166913,161778
2026-04-19T00:02:55.649,1,84,166929,161754
2026-04-19T00:02:55.659,1,85,166929,161754
2026-04-19T00:02:55.669,1,86,166929,161754
2026-04-19T00:02:55.679,1,87,166929,161754
2026-04-19T00:02:55.689,1,88,166866,161759
2026-04-19T00:02:55.699,1,89,166866,161759
2026-04-19T00:02:55.709,1,90,166866,161759
2026-04-19T00:02:55.718,1,91,166866,161759
2026-04-19T00:02:55.728,1,92,166620,161767
2026-04-19T00:02:55.738,1,93,166620,161767
2026-04-19T00:02:55.749,1,94,166620,161767
2026-04-19T00:02:55.759,1,95,166620,161767
2026-04-19T00:02:55.769,1,96,166473,161753
2026-04-19T00:02:55.778,1,97,166473,161753
2026-04-19T00:02:55.789,1,98,166473,161753
2026-04-19T00:02:55.798,1,99,166473,161753
2026-04-19T00:02:55.809,1,100,166768,161729
2026-04-19T00:02:55.818,1,101,166768,161729
2026-04-19T00:02:55.828,1,102,166768,161729
2026-04-19T00:02:55.839,1,103,166768,161729
2026-04-19T00:02:55.848,1,104,167304,161673
2026-04-19T00:02:55.859,1,105,167304,161673
2026-04-19T00:02:55.869,1,106,167304,161673
2026-04-19T00:02:55.879,1,107,167304,161673
2026-04-19T00:02:55.889,1,108,167639,161616
2026-04-19T00:02:55.899,1,109,167639,161616
2026-04-19T00:02:55.909,1,110,167639,161616
2026-04-19T00:02:55.919,1,111,167639,161616
2026-04-19T00:02:55.929,1,112,167543,161653
2026-04-19T00:02:55.939,1,113,167543,161653
2026-04-19T00:02:55.949,1,114,167543,161653
2026-04-19T00:02:55.959,1,115,167543,161653
2026-04-19T00:02:55.968,1,116,167309,161729
2026-04-19T00:02:55.979,1,117,167309,161729
2026-04-19T00:02:55.988,1,118,167309,161729
2026-04-19T00:02:55.998,1,119,167309,161729
2026-04-19T00:02:56.008,1,120,167246,161772
2026-04-19T00:02:56.019,1,121,167246,161772
2026-04-19T00:02:56.029,1,122,167246,161772
2026-04-19T00:02:56.039,1,123,167246,161772
2026-04-19T00:02:56.049,1,124,167064,161786
2026-04-19T00:02:56.059,1,125,167064,161786
2026-04-19T00:02:56.068,1,126,167064,161786
2026-04-19T00:02:56.079,1,127,167064,161786
2026-04-19T00:02:56.089,1,128,166834,161749
2026-04-19T00:02:56.098,1,129,166834,161749
2026-04-19T00:02:56.108,1,130,166834,161749
2026-04-19T00:02:56.118,1,131,166834,161749
2026-04-19T00:02:56.128,1,132,166982,161808
2026-04-19T00:02:56.139,1,133,166982,161808
2026-04-19T00:02:56.148,1,134,166982,161808
2026-04-19T00:02:56.159,1,135,166982,161808
2026-04-19T00:02:56.168,1,136,166960,161859
2026-04-19T00:02:56.178,1,137,166960,161859
2026-04-19T00:02:56.188,1,138,166960,161859
2026-04-19T00:02:56.199,1,139,166960,161859
2026-04-19T00:02:56.208,1,140,166952,161922
2026-04-19T00:02:56.218,1,141,166952,161922
2026-04-19T00:02:56.228,1,142,166952,161922
2026-04-19T00:02:56.238,1,143,166952,161922
2026-04-19T00:02:56.248,1,144,167134,161918
2026-04-19T00:02:56.258,1,145,167134,161918
2026-04-19T00:02:56.268,1,146,167134,161918
2026-04-19T00:02:56.278,1,147,167134,161918
2026-04-19T00:02:56.288,1,148,167263,161927
2026-04-19T00:02:56.299,1,149,167263,161927
2026-04-19T00:02:56.308,1,150,167263,161927
2026-04-19T00:02:56.318,1,151,167263,161927
2026-04-19T00:02:56.328,1,152,167262,161956
2026-04-19T00:02:56.338,1,153,167262,161956
2026-04-19T00:02:56.348,1,154,167262,161956
2026-04-19T00:02:56.358,1,155,167262,161956
2026-04-19T00:02:56.368,1,156,167415,161917
2026-04-19T00:02:56.378,1,157,167415,161917
2026-04-19T00:02:56.388,1,158,167415,161917
2026-04-19T00:02:56.398,1,159,167415,161917
2026-04-19T00:02:56.408,1,160,167549,161900
2026-04-19T00:02:56.418,1,161,167549,161900
2026-04-19T00:02:56.428,1,162,167549,161900
2026-04-19T00:02:56.438,1,163,167549,161900
2026-04-19T00:02:56.448,1,164,167565,161892
2026-04-19T00:02:56.458,1,165,167565,161892
2026-04-19T00:02:56.468,1,166,167565,161892
2026-04-19T00:02:56.478,1,167,167565,161892
2026-04-19T00:02:56.488,1,168,167612,161826
2026-04-19T00:02:56.498,1,169,167612,161826
2026-04-19T00:02:56.508,1,170,167612,161826
2026-04-19T00:02:56.518,1,171,167612,161826
2026-04-19T00:02:56.528,1,172,167868,161738
2026-04-19T00:02:56.537,1,173,167868,161738
2026-04-19T00:02:56.548,1,174,167868,161738
2026-04-19T00:02:56.558,1,175,167868,161738
2026-04-19T00:02:56.568,1,176,167959,161688
2026-04-19T00:02:56.578,1,177,167959,161688
2026-04-19T00:02:56.587,1,178,167959,161688
2026-04-19T00:02:56.597,1,179,167959,161688
2026-04-19T00:02:56.607,1,180,168111,161624
2026-04-19T00:02:56.617,1,181,168111,161624
2026-04-19T00:02:56.627,1,182,168111,161624
2026-04-19T00:02:56.637,1,183,168111,161624
2026-04-19T00:02:56.648,1,184,168345,161589
2026-04-19T00:02:56.657,1,185,168345,161589
2026-04-19T00:02:56.667,1,186,168345,161589
2026-04-19T00:02:56.677,1,187,168345,161589
2026-04-19T00:02:56.687,1,188,168242,161641
2026-04-19T00:02:56.697,1,189,168242,161641
2026-04-19T00:02:56.708,1,190,168242,161641
2026-04-19T00:02:56.718,1,191,168242,161641
2026-04-19T00:02:56.728,1,192,168114,161644
2026-04-19T00:02:56.738,1,193,168114,161644
2026-04-19T00:02:56.748,1,194,168114,161644
2026-04-19T00:02:56.758,1,195,168114,161644
2026-04-19T00:02:56.768,1,196,168041,161613
2026-04-19T00:02:56.778,1,197,168041,161613
2026-04-19T00:02:56.787,1,198,168041,161613
2026-04-19T00:02:56.798,1,199,168041,161613
2026-04-19T00:02:56.808,1,200,167898,161623
2026-04-19T00:02:56.818,1,201,167898,161623
2026-04-19T00:02:56.828,1,202,167898,161623
2026-04-19T00:02:56.837,1,203,167898,161623
2026-04-19T00:02:56.847,1,204,167670,161634
2026-04-19T00:02:56.857,1,205,167670,161634
2026-04-19T00:02:56.867,1,206,167670,161634
2026-04-19T00:02:56.877,1,207,167670,161634
2026-04-19T00:02:56.888,1,208,167831,161589
2026-04-19T00:02:56.897,1,209,167831,161589
2026-04-19T00:02:56.908,1,210,167831,161589
2026-04-19T00:02:56.918,1,211,167831,161589
2026-04-19T00:02:56.927,1,212,167839,161544
2026-04-19T00:02:56.937,1,213,167839,161544
2026-04-19T00:02:56.948,1,214,167839,161544
2026-04-19T00:02:56.958,1,215,167839,161544
2026-04-19T00:02:56.967,1,216,167689,161498
2026-04-19T00:02:56.978,1,217,167689,161498
2026-04-19T00:02:56.988,1,218,167689,161498
2026-04-19T00:02:56.997,1,219,167689,161498
2026-04-19T00:02:57.008,1,220,167573,161442
2026-04-19T00:02:57.017,1,221,167573,161442
2026-04-19T00:02:57.027,1,222,167573,161442
2026-04-19T00:02:57.037,1,223,167573,161442
2026-04-19T00:02:57.047,1,224,167555,161425
2026-04-19T00:02:57.057,1,225,167555,161425
2026-04-19T00:02:57.067,1,226,167555,161425
2026-04-19T00:02:57.077,1,227,167555,161425
2026-04-19T00:02:57.088,1,228,167436,161394
2026-04-19T00:02:57.097,1,229,167436,161394
2026-04-19T00:02:57.107,1,230,167436,161394
2026-04-19T00:02:57.117,1,231,167436,161394
2026-04-19T00:02:57.127,1,232,167311,161345
2026-04-19T00:02:57.137,1,233,167311,161345
2026-04-19T00:02:57.147,1,234,167311,161345
2026-04-19T00:02:57.157,1,235,167311,161345
2026-04-19T00:02:57.167,1,236,167169,161298
2026-04-19T00:02:57.177,1,237,167169,161298
2026-04-19T00:02:57.187,1,238,167169,161298
2026-04-19T00:02:57.197,1,239,167169,161298
2026-04-19T00:02:57.207,1,240,167182,161225
2026-04-19T00:02:57.217,1,241,167182,161225
2026-04-19T00:02:57.227,1,242,167182,161225
2026-04-19T00:02:57.237,1,243,167182,161225
2026-04-19T00:02:57.247,1,244,167278,161177
2026-04-19T00:02:57.257,1,245,167278,161177
2026-04-19T00:02:57.267,1,246,167278,161177
2026-04-19T00:02:57.277,1,247,167278,161177
2026-04-19T00:02:57.287,1,248,167125,161148
2026-04-19T00:02:57.297,1,249,167125,161148
2026-04-19T00:02:57.307,1,250,167125,161148
2026-04-19T00:02:57.317,1,251,167125,161148
2026-04-19T00:02:57.327,1,252,167089,161114
2026-04-19T00:02:57.337,1,253,167089,161114
2026-04-19T00:02:57.347,1,254,167089,161114
2026-04-19T00:02:57.357,1,255,167089,161114
2026-04-19T00:02:57.367,1,256,167033,161079
2026-04-19T00:02:57.377,1,257,167033,161079
2026-04-19T00:02:57.387,1,258,167033,161079
2026-04-19T00:02:57.397,1,259,167033,161079
2026-04-19T00:02:57.407,1,260,167013,161079
2026-04-19T00:02:57.417,1,261,167013,161079
2026-04-19T00:02:57.427,1,262,167013,161079
2026-04-19T00:02:57.437,1,263,167013,161079
2026-04-19T00:02:57.447,1,264,166881,161090
2026-04-19T00:02:57.457,1,265,166881,161090
2026-04-19T00:02:57.467,1,266,166881,161090
2026-04-19T00:02:57.477,1,267,166881,161090
2026-04-19T00:02:57.487,1,268,166714,161065
2026-04-19T00:02:57.497,1,269,166714,161065
2026-04-19T00:02:57.507,1,270,166714,161065
2026-04-19T00:02:57.517,1,271,166714,161065
2026-04-19T00:02:57.527,1,272,166420,161042
2026-04-19T00:02:57.537,1,273,166420,161042
2026-04-19T00:02:57.546,1,274,166420,161042
2026-04-19T00:02:57.556,1,275,166420,161042
2026-04-19T00:02:57.566,1,276,166316,161150
2026-04-19T00:02:57.576,1,277,166316,161150
2026-04-19T00:02:57.586,1,278,166316,161150
2026-04-19T00:02:57.597,1,279,166316,161150
2026-04-19T00:02:57.606,1,280,166395,161276
2026-04-19T00:02:57.616,1,281,166395,161276
2026-04-19T00:02:57.626,1,282,166395,161276
2026-04-19T00:02:57.636,1,283,166395,161276
2026-04-19T00:02:57.646,1,284,166493,161396
2026-04-19T00:02:57.657,1,285,166493,161396
2026-04-19T00:02:57.667,1,286,166493,161396
2026-04-19T00:02:57.677,1,287,166493,161396
2026-04-19T00:02:57.687,1,288,166294,161441
2026-04-19T00:02:57.696,1,289,166294,161441
2026-04-19T00:02:57.707,1,290,166294,161441
2026-04-19T00:02:57.716,1,291,166294,161441
2026-04-19T00:02:57.727,1,292,166151,161510
2026-04-19T00:02:57.737,1,293,166151,161510
2026-04-19T00:02:57.746,1,294,166151,161510
2026-04-19T00:02:57.756,1,295,166151,161510
2026-04-19T00:02:57.767,1,296,166092,161575
2026-04-19T00:02:57.776,1,297,166092,161575
2026-04-19T00:02:57.787,1,298,166092,161575
2026-04-19T00:02:57.797,1,299,166092,161575
2026-04-19T00:02:57.807,1,300,165851,161635
2026-04-19T00:02:57.816,1,301,165851,161635
2026-04-19T00:02:57.827,1,302,165851,161635
2026-04-19T00:02:57.836,1,303,165851,161635
2026-04-19T00:02:57.846,1,304,165631,161613
2026-04-19T00:02:57.856,1,305,165631,161613
2026-04-19T00:02:57.866,1,306,165631,161613
2026-04-19T00:02:57.877,1,307,165631,161613
2026-04-19T00:02:57.886,1,308,165435,161577
2026-04-19T00:02:57.896,1,309,165435,161577
2026-04-19T00:02:57.906,1,310,165435,161577
2026-04-19T00:02:57.916,1,311,165435,161577
2026-04-19T00:02:57.926,1,312,165418,161557
2026-04-19T00:02:57.937,1,313,165418,161557
2026-04-19T00:02:57.946,1,314,165418,161557
2026-04-19T00:02:57.956,1,315,165418,161557
2026-04-19T00:02:57.966,1,316,165548,161542
2026-04-19T00:02:57.976,1,317,165548,161542
2026-04-19T00:02:57.986,1,318,165548,161542
2026-04-19T00:02:57.997,1,319,165548,161542
2026-04-19T00:02:58.007,1,320,165761,161615
2026-04-19T00:02:58.016,1,321,165761,161615
2026-04-19T00:02:58.026,1,322,165761,161615
2026-04-19T00:02:58.036,1,323,165761,161615
2026-04-19T00:02:58.046,1,324,165740,161617
2026-04-19T00:02:58.056,1,325,165740,161617
2026-04-19T00:02:58.066,1,326,165740,161617
2026-04-19T00:02:58.076,1,327,165740,161617
2026-04-19T00:02:58.086,1,328,165941,161641
2026-04-19T00:02:58.096,1,329,165941,161641
2026-04-19T00:02:58.106,1,330,165941,161641
2026-04-19T00:02:58.116,1,331,165941,161641
2026-04-19T00:02:58.126,1,332,165886,161642
2026-04-19T00:02:58.136,1,333,165886,161642
2026-04-19T00:02:58.146,1,334,165886,161642
2026-04-19T00:02:58.156,1,335,165886,161642
2026-04-19T00:02:58.166,1,336,165644,161625
2026-04-19T00:02:58.176,1,337,165644,161625
2026-04-19T00:02:58.186,1,338,165644,161625
2026-04-19T00:02:58.196,1,339,165644,161625
2026-04-19T00:02:58.206,1,340,165477,161609
2026-04-19T00:02:58.216,1,341,165477,161609
2026-04-19T00:02:58.226,1,342,165477,161609
2026-04-19T00:02:58.236,1,343,165477,161609
2026-04-19T00:02:58.246,1,344,165221,161572
2026-04-19T00:02:58.256,1,345,165221,161572
2026-04-19T00:02:58.266,1,346,165221,161572
2026-04-19T00:02:58.276,1,347,165221,161572
2026-04-19T00:02:58.286,1,348,165096,161551
2026-04-19T00:02:58.296,1,349,165096,161551
2026-04-19T00:02:58.306,1,350,165096,161551
2026-04-19T00:02:58.316,1,351,165096,161551
2026-04-19T00:02:58.326,1,352,165041,161553
2026-04-19T00:02:58.336,1,353,165041,161553
2026-04-19T00:02:58.346,1,354,165041,161553
2026-04-19T00:02:58.356,1,355,165041,161553
2026-04-19T00:02:58.366,1,356,165192,161591
2026-04-19T00:02:58.376,1,357,165192,161591
2026-04-19T00:02:58.386,1,358,165192,161591
2026-04-19T00:02:58.396,1,359,165192,161591
2026-04-19T00:02:58.406,1,360,165146,161598
2026-04-19T00:02:58.415,1,361,165146,161598
2026-04-19T00:02:58.425,1,362,165146,161598
2026-04-19T00:02:58.436,1,363,165146,161598
2026-04-19T00:02:58.446,1,364,165078,161550
2026-04-19T00:02:58.455,1,365,165078,161550
2026-04-19T00:02:58.465,1,366,165078,161550
2026-04-19T00:02:58.475,1,367,165078,161550
2026-04-19T00:02:58.485,1,368,165159,161547
2026-04-19T00:02:58.495,1,369,165159,161547
2026-04-19T00:02:58.505,1,370,165159,161547
2026-04-19T00:02:58.515,1,371,165159,161547
2026-04-19T00:02:58.525,1,372,165094,161532
2026-04-19T00:02:58.535,1,373,165094,161532
2026-04-19T00:02:58.545,1,374,165094,161532
2026-04-19T00:02:58.555,1,375,165094,161532
2026-04-19T00:02:58.565,1,376,165024,161489
2026-04-19T00:02:58.575,1,377,165024,161489
2026-04-19T00:02:58.585,1,378,165024,161489
2026-04-19T00:02:58.595,1,379,165024,161489
2026-04-19T00:02:58.605,1,380,165068,161475
2026-04-19T00:02:58.615,1,381,165068,161475
2026-04-19T00:02:58.625,1,382,165068,161475
2026-04-19T00:02:58.635,1,383,165068,161475
2026-04-19T00:02:58.645,1,384,165090,161482
2026-04-19T00:02:58.655,1,385,165090,161482
2026-04-19T00:02:58.665,1,386,165090,161482
2026-04-19T00:02:58.675,1,387,165090,161482
2026-04-19T00:02:58.685,1,388,165051,161440
2026-04-19T00:02:58.695,1,389,165051,161440
2026-04-19T00:02:58.705,1,390,165051,161440
2026-04-19T00:02:58.715,1,391,165051,161440
2026-04-19T00:02:58.725,1,392,165337,161485
2026-04-19T00:02:58.736,1,393,165337,161485
2026-04-19T00:02:58.745,1,394,165337,161485
2026-04-19T00:02:58.755,1,395,165337,161485
2026-04-19T00:02:58.765,1,396,165704,161520
2026-04-19T00:02:58.775,1,397,165704,161520
2026-04-19T00:02:58.785,1,398,165704,161520
2026-04-19T00:02:58.795,1,399,165704,161520
2026-04-19T00:02:58.805,1,400,166112,161541
2026-04-19T00:02:58.815,1,401,166112,161541
2026-04-19T00:02:58.825,1,402,166112,161541
2026-04-19T00:02:58.835,1,403,166112,161541
2026-04-19T00:02:58.845,1,404,166502,161592
2026-04-19T00:02:58.855,1,405,166502,161592
2026-04-19T00:02:58.865,1,406,166502,161592
2026-04-19T00:02:58.875,1,407,166502,161592
2026-04-19T00:02:58.885,1,408,166560,161630
2026-04-19T00:02:58.895,1,409,166560,161630
2026-04-19T00:02:58.905,1,410,166560,161630
2026-04-19T00:02:58.914,1,411,166560,161630
2026-04-19T00:02:58.925,1,412,166551,161585
2026-04-19T00:02:58.935,1,413,166551,161585
2026-04-19T00:02:58.945,1,414,166551,161585
2026-04-19T00:02:58.955,1,415,166551,161585
2026-04-19T00:02:58.965,1,416,166494,161520
2026-04-19T00:02:58.975,1,417,166494,161520
2026-04-19T00:02:58.985,1,418,166494,161520
2026-04-19T00:02:58.995,1,419,166494,161520
2026-04-19T00:02:59.005,1,420,166325,161496
2026-04-19T00:02:59.015,1,421,166325,161496
2026-04-19T00:02:59.025,1,422,166325,161496
2026-04-19T00:02:59.035,1,423,166325,161496
2026-04-19T00:02:59.045,1,424,166262,161429
2026-04-19T00:02:59.055,1,425,166262,161429
2026-04-19T00:02:59.065,1,426,166262,161429
2026-04-19T00:02:59.075,1,427,166262,161429
2026-04-19T00:02:59.084,1,428,166506,161386
2026-04-19T00:02:59.095,1,429,166506,161386
2026-04-19T00:02:59.105,1,430,166506,161386
2026-04-19T00:02:59.115,1,431,166506,161386
2026-04-19T00:02:59.125,1,432,166455,161280
2026-04-19T00:02:59.135,1,433,166455,161280
2026-04-19T00:02:59.145,1,434,166455,161280
2026-04-19T00:02:59.155,1,435,166455,161280
2026-04-19T00:02:59.165,1,436,166382,161134
2026-04-19T00:02:59.175,1,437,166382,161134
2026-04-19T00:02:59.184,1,438,166382,161134
2026-04-19T00:02:59.195,1,439,166382,161134
2026-04-19T00:02:59.205,1,440,166497,161032
2026-04-19T00:02:59.215,1,441,166497,161032
2026-04-19T00:02:59.225,1,442,166497,161032
2026-04-19T00:02:59.234,1,443,166497,161032
2026-04-19T00:02:59.244,1,444,166589,160975
2026-04-19T00:02:59.254,1,445,166589,160975
2026-04-19T00:02:59.265,1,446,166589,160975
2026-04-19T00:02:59.275,1,447,166589,160975
2026-04-19T00:02:59.285,1,448,166625,160951
2026-04-19T00:02:59.295,1,449,166625,160951
2026-04-19T00:02:59.304,1,450,166625,160951
2026-04-19T00:02:59.314,1,451,166625,160951
2026-04-19T00:02:59.324,1,452,166686,160921
2026-04-19T00:02:59.334,1,453,166686,160921
2026-04-19T00:02:59.344,1,454,166686,160921
2026-04-19T00:02:59.354,1,455,166686,160921
2026-04-19T00:02:59.364,1,456,166549,160909
2026-04-19T00:02:59.374,1,457,166549,160909
2026-04-19T00:02:59.384,1,458,166549,160909
2026-04-19T00:02:59.394,1,459,166549,160909
2026-04-19T00:02:59.405,1,460,166835,160892
2026-04-19T00:02:59.414,1,461,166835,160892
2026-04-19T00:02:59.425,1,462,166835,160892
2026-04-19T00:02:59.434,1,463,166835,160892
2026-04-19T00:02:59.445,1,464,167130,160924
2026-04-19T00:02:59.454,1,465,167130,160924
2026-04-19T00:02:59.464,1,466,167130,160924
2026-04-19T00:02:59.474,1,467,167130,160924
2026-04-19T00:02:59.484,1,468,166982,161034
2026-04-19T00:02:59.495,1,469,166982,161034
2026-04-19T00:02:59.505,1,470,166982,161034
2026-04-19T00:02:59.514,1,471,166982,161034
2026-04-19T00:02:59.525,1,472,166926,161161
2026-04-19T00:02:59.534,1,473,166926,161161
2026-04-19T00:02:59.545,1,474,166926,161161
2026-04-19T00:02:59.554,1,475,166926,161161
2026-04-19T00:02:59.564,1,476,166809,161367
2026-04-19T00:02:59.574,1,477,166809,161367
2026-04-19T00:02:59.585,1,478,166809,161367
2026-04-19T00:02:59.594,1,479,166809,161367
2026-04-19T00:02:59.605,1,480,166309,161500
2026-04-19T00:02:59.615,1,481,166309,161500
2026-04-19T00:02:59.624,1,482,166309,161500
2026-04-19T00:02:59.634,1,483,166309,161500
2026-04-19T00:02:59.644,1,484,165880,161497
2026-04-19T00:02:59.654,1,485,165880,161497
2026-04-19T00:02:59.664,1,486,165880,161497
2026-04-19T00:02:59.674,1,487,165880,161497
2026-04-19T00:02:59.684,1,488,165599,161451
2026-04-19T00:02:59.694,1,489,165599,161451
2026-04-19T00:02:59.704,1,490,165599,161451
2026-04-19T00:02:59.714,1,491,165599,161451
2026-04-19T00:02:59.724,1,492,165453,161440
2026-04-19T00:02:59.734,1,493,165453,161440
2026-04-19T00:02:59.744,1,494,165453,161440
2026-04-19T00:02:59.754,1,495,165453,161440
2026-04-19T00:02:59.764,1,496,165464,161451
2026-04-19T00:02:59.774,1,497,165464,161451
2026-04-19T00:02:59.784,1,498,165464,161451
2026-04-19T00:02:59.794,1,499,165464,161451
2026-04-19T00:02:59.804,1,500,165661,161469
2026-04-19T00:02:59.814,1,501,165661,161469
2026-04-19T00:02:59.824,1,502,165661,161469
2026-04-19T00:02:59.834,1,503,165661,161469
2026-04-19T00:02:59.844,1,504,165575,161448
2026-04-19T00:02:59.854,1,505,165575,161448
2026-04-19T00:02:59.864,1,506,165575,161448
2026-04-19T00:02:59.874,1,507,165575,161448
2026-04-19T00:02:59.884,1,508,165380,161392
2026-04-19T00:02:59.894,1,509,165380,161392
2026-04-19T00:02:59.904,1,510,165380,161392
2026-04-19T00:02:59.914,1,511,165380,161392
2026-04-19T00:02:59.924,1,512,165346,161370
2026-04-19T00:02:59.934,1,513,165346,161370
2026-04-19T00:02:59.943,1,514,165346,161370
2026-04-19T00:02:59.954,1,515,165346,161370
2026-04-19T00:02:59.963,1,516,165328,161346
2026-04-19T00:02:59.974,1,517,165328,161346
2026-04-19T00:02:59.984,1,518,165328,161346
2026-04-19T00:02:59.993,1,519,165328,161346
2026-04-19T00:03:00.004,1,520,165410,161339
2026-04-19T00:03:00.013,1,521,165410,161339
2026-04-19T00:03:00.024,1,522,165410,161339
2026-04-19T00:03:00.033,1,523,165410,161339
2026-04-19T00:03:00.044,1,524,165388,161311
2026-04-19T00:03:00.054,1,525,165388,161311
2026-04-19T00:03:00.063,1,526,165388,161311
2026-04-19T00:03:00.074,1,527,165388,161311
2026-04-19T00:03:00.084,1,528,165261,161297
2026-04-19T00:03:00.093,1,529,165261,161297
2026-04-19T00:03:00.103,1,530,165261,161297
2026-04-19T00:03:00.113,1,531,165261,161297
2026-04-19T00:03:00.123,1,532,165238,161272
2026-04-19T00:03:00.134,1,533,165238,161272
2026-04-19T00:03:00.144,1,534,165238,161272
2026-04-19T00:03:00.154,1,535,165238,161272
2026-04-19T00:03:00.163,1,536,165417,161302
2026-04-19T00:03:00.173,1,537,165417,161302
2026-04-19T00:03:00.183,1,538,165417,161302
2026-04-19T00:03:00.193,1,539,165417,161302
2026-04-19T00:03:00.203,1,540,165541,161340
2026-04-19T00:03:00.213,1,541,165541,161340
2026-04-19T00:03:00.223,1,542,165541,161340
2026-04-19T00:03:00.233,1,543,165541,161340
2026-04-19T00:03:00.244,1,544,165698,161341
2026-04-19T00:03:00.253,1,545,165698,161341
2026-04-19T00:03:00.263,1,546,165698,161341
2026-04-19T00:03:00.273,1,547,165698,161341
2026-04-19T00:03:00.283,1,548,165750,161386
2026-04-19T00:03:00.293,1,549,165750,161386
2026-04-19T00:03:00.303,1,550,165750,161386
2026-04-19T00:03:00.313,1,551,165750,161386
2026-04-19T00:03:00.323,1,552,165619,161424
2026-04-19T00:03:00.333,1,553,165619,161424
2026-04-19T00:03:00.343,1,554,165619,161424
2026-04-19T00:03:00.353,1,555,165619,161424
2026-04-19T00:03:00.363,1,556,165467,161460
2026-04-19T00:03:00.373,1,557,165467,161460
2026-04-19T00:03:00.383,1,558,165467,161460
2026-04-19T00:03:00.393,1,559,165467,161460
2026-04-19T00:03:00.403,1,560,165096,161418
2026-04-19T00:03:00.413,1,561,165096,161418
2026-04-19T00:03:00.423,1,562,165096,161418
2026-04-19T00:03:00.433,1,563,165096,161418
2026-04-19T00:03:00.443,1,564,164585,161315
2026-04-19T00:03:00.453,1,565,164585,161315
2026-04-19T00:03:00.463,1,566,164585,161315
2026-04-19T00:03:00.473,1,567,164585,161315
2026-04-19T00:03:00.483,1,568,164404,161250
2026-04-19T00:03:00.493,1,569,164404,161250
2026-04-19T00:03:00.503,1,570,164404,161250
2026-04-19T00:03:00.513,1,571,164404,161250
2026-04-19T00:03:00.523,1,572,164185,161140
2026-04-19T00:03:00.533,1,573,164185,161140
2026-04-19T00:03:00.543,1,574,164185,161140
2026-04-19T00:03:00.553,1,575,164185,161140
2026-04-19T00:03:00.563,1,576,164094,161111
2026-04-19T00:03:00.573,1,577,164094,161111
2026-04-19T00:03:00.583,1,578,164094,161111
2026-04-19T00:03:00.593,1,579,164094,161111
2026-04-19T00:03:00.603,1,580,164140,161073
2026-04-19T00:03:00.613,1,581,164140,161073
2026-04-19T00:03:00.623,1,582,164140,161073
2026-04-19T00:03:00.633,1,583,164140,161073
2026-04-19T00:03:00.643,1,584,164021,160948
2026-04-19T00:03:00.653,1,585,164021,160948
2026-04-19T00:03:00.663,1,586,164021,160948
2026-04-19T00:03:00.673,1,587,164021,160948
2026-04-19T00:03:00.683,1,588,163923,160842
2026-04-19T00:03:00.692,1,589,163923,160842
2026-04-19T00:03:00.702,1,590,163923,160842
2026-04-19T00:03:00.712,1,591,163923,160842
2026-04-19T00:03:00.722,1,592,163891,160830
2026-04-19T00:03:00.732,1,593,163891,160830
2026-04-19T00:03:00.742,1,594,163891,160830
2026-04-19T00:03:00.752,1,595,163891,160830
2026-04-19T00:03:00.763,1,596,164105,160944
2026-04-19T00:03:00.773,1,597,164105,160944
2026-04-19T00:03:00.782,1,598,164105,160944
2026-04-19T00:03:00.793,1,599,164105,160944
2026-04-19T00:03:00.803,1,600,164356,161061
2026-04-19T00:03:00.813,1,601,164356,161061
2026-04-19T00:03:00.823,1,602,164356,161061
2026-04-19T00:03:00.833,1,603,164356,161061
2026-04-19T00:03:00.843,1,604,164417,161121
2026-04-19T00:03:00.852,1,605,164417,161121
2026-04-19T00:03:00.863,1,606,164417,161121
2026-04-19T00:03:00.873,1,607,164417,161121
2026-04-19T00:03:00.883,1,608,164590,161167
2026-04-19T00:03:00.893,1,609,164590,161167
2026-04-19T00:03:00.903,1,610,164590,161167
2026-04-19T00:03:00.913,1,611,164590,161167
2026-04-19T00:03:00.923,1,612,164874,161306
2026-04-19T00:03:00.933,1,613,164874,161306
2026-04-19T00:03:00.943,1,614,164874,161306
2026-04-19T00:03:00.953,1,615,164874,161306
2026-04-19T00:03:00.963,1,616,165182,161418
2026-04-19T00:03:00.972,1,617,165182,161418
2026-04-19T00:03:00.982,1,618,165182,161418
2026-04-19T00:03:00.992,1,619,165182,161418
2026-04-19T00:03:01.002,1,620,165335,161483
2026-04-19T00:03:01.012,1,621,165335,161483
2026-04-19T00:03:01.022,1,622,165335,161483
2026-04-19T00:03:01.032,1,623,165335,161483
2026-04-19T00:03:01.042,1,624,164999,161483
2026-04-19T00:03:01.052,1,625,164999,161483
2026-04-19T00:03:01.062,1,626,164999,161483
2026-04-19T00:03:01.072,1,627,164999,161483
2026-04-19T00:03:01.082,1,628,164792,161439
2026-04-19T00:03:01.092,1,629,164792,161439
2026-04-19T00:03:01.102,1,630,164792,161439
2026-04-19T00:03:01.112,1,631,164792,161439
2026-04-19T00:03:01.122,1,632,164675,161418
2026-04-19T00:03:01.132,1,633,164675,161418
2026-04-19T00:03:01.142,1,634,164675,161418
2026-04-19T00:03:01.152,1,635,164675,161418
2026-04-19T00:03:01.163,1,636,164456,161351
2026-04-19T00:03:01.172,1,637,164456,161351
2026-04-19T00:03:01.182,1,638,164456,161351
2026-04-19T00:03:01.192,1,639,164456,161351
2026-04-19T00:03:01.202,1,640,164439,161340
2026-04-19T00:03:01.212,1,641,164439,161340
2026-04-19T00:03:01.222,1,642,164439,161340
2026-04-19T00:03:01.232,1,643,164439,161340
2026-04-19T00:03:01.242,1,644,164737,161403
2026-04-19T00:03:01.252,1,645,164737,161403
2026-04-19T00:03:01.262,1,646,164737,161403
2026-04-19T00:03:01.272,1,647,164737,161403
2026-04-19T00:03:01.282,1,648,164832,161416
2026-04-19T00:03:01.292,1,649,164832,161416
2026-04-19T00:03:01.302,1,650,164832,161416
2026-04-19T00:03:01.312,1,651,164832,161416
2026-04-19T00:03:01.322,1,652,164825,161334
2026-04-19T00:03:01.332,1,653,164825,161334
2026-04-19T00:03:01.342,1,654,164825,161334
2026-04-19T00:03:01.352,1,655,164825,161334
2026-04-19T00:03:01.362,1,656,165078,161327
2026-04-19T00:03:01.372,1,657,165078,161327
2026-04-19T00:03:01.382,1,658,165078,161327
2026-04-19T00:03:01.392,1,659,165078,161327
2026-04-19T00:03:01.402,1,660,165173,161287
2026-04-19T00:03:01.412,1,661,165173,161287
2026-04-19T00:03:01.422,1,662,165173,161287
2026-04-19T00:03:01.432,1,663,165173,161287
2026-04-19T00:03:01.442,1,664,165310,161275
2026-04-19T00:03:01.452,1,665,165310,161275
2026-04-19T00:03:01.462,1,666,165310,161275
2026-04-19T00:03:01.472,1,667,165310,161275
2026-04-19T00:03:01.482,1,668,165495,161243
2026-04-19T00:03:01.492,1,669,165495,161243
2026-04-19T00:03:01.502,1,670,165495,161243
2026-04-19T00:03:01.512,1,671,165495,161243
2026-04-19T00:03:01.522,1,672,165688,161232
2026-04-19T00:03:01.532,1,673,165688,161232
2026-04-19T00:03:01.541,1,674,165688,161232
2026-04-19T00:03:01.551,1,675,165688,161232
2026-04-19T00:03:01.561,1,676,165820,161174
2026-04-19T00:03:01.572,1,677,165820,161174
2026-04-19T00:03:01.582,1,678,165820,161174
2026-04-19T00:03:01.592,1,679,165820,161174
2026-04-19T00:03:01.602,1,680,165991,161157
2026-04-19T00:03:01.612,1,681,165991,161157
2026-04-19T00:03:01.622,1,682,165991,161157
2026-04-19T00:03:01.631,1,683,165991,161157
2026-04-19T00:03:01.641,1,684,166092,161164
2026-04-19T00:03:01.651,1,685,166092,161164
2026-04-19T00:03:01.662,1,686,166092,161164
2026-04-19T00:03:01.672,1,687,166092,161164
2026-04-19T00:03:01.681,1,688,166111,161138
2026-04-19T00:03:01.691,1,689,166111,161138
2026-04-19T00:03:01.702,1,690,166111,161138
2026-04-19T00:03:01.712,1,691,166111,161138
2026-04-19T00:03:01.721,1,692,166294,161150
2026-04-19T00:03:01.731,1,693,166294,161150
2026-04-19T00:03:01.741,1,694,166294,161150
2026-04-19T00:03:01.751,1,695,166294,161150
2026-04-19T00:03:01.762,1,696,166154,161163
2026-04-19T00:03:01.772,1,697,166154,161163
2026-04-19T00:03:01.781,1,698,166154,161163
2026-04-19T00:03:01.791,1,699,166154,161163
2026-04-19T00:03:01.801,1,700,166023,161158
2026-04-19T00:03:01.811,1,701,166023,161158
2026-04-19T00:03:01.821,1,702,166023,161158
2026-04-19T00:03:01.831,1,703,166023,161158
2026-04-19T00:03:01.841,1,704,166030,161173
2026-04-19T00:03:01.851,1,705,166030,161173
2026-04-19T00:03:01.861,1,706,166030,161173
2026-04-19T00:03:01.871,1,707,166030,161173
2026-04-19T00:03:01.881,1,708,165807,161167
2026-04-19T00:03:01.891,1,709,165807,161167
2026-04-19T00:03:01.901,1,710,165807,161167
2026-04-19T00:03:01.911,1,711,165807,161167
2026-04-19T00:03:01.921,1,712,165599,161141
2026-04-19T00:03:01.931,1,713,165599,161141
2026-04-19T00:03:01.941,1,714,165599,161141
2026-04-19T00:03:01.951,1,715,165599,161141
2026-04-19T00:03:01.961,1,716,165687,161132
2026-04-19T00:03:01.971,1,717,165687,161132
2026-04-19T00:03:01.981,1,718,165687,161132
2026-04-19T00:03:01.991,1,719,165687,161132
2026-04-19T00:03:02.001,1,720,165752,161137
2026-04-19T00:03:02.011,1,721,165752,161137
2026-04-19T00:03:02.021,1,722,165752,161137
2026-04-19T00:03:02.031,1,723,165752,161137
2026-04-19T00:03:02.041,1,724,165629,161097
2026-04-19T00:03:02.051,1,725,165629,161097
2026-04-19T00:03:02.061,1,726,165629,161097
2026-04-19T00:03:02.071,1,727,165629,161097
2026-04-19T00:03:02.081,1,728,165455,161055
2026-04-19T00:03:02.091,1,729,165455,161055
2026-04-19T00:03:02.101,1,730,165455,161055
2026-04-19T00:03:02.111,1,731,165455,161055
2026-04-19T00:03:02.121,1,732,164769,160992
2026-04-19T00:03:02.131,1,733,164769,160992
2026-04-19T00:03:02.141,1,734,164769,160992
2026-04-19T00:03:02.151,1,735,164769,160992
2026-04-19T00:03:02.161,1,736,162102,159957
2026-04-19T00:03:02.171,1,737,162102,159957
2026-04-19T00:03:02.181,1,738,162102,159957
2026-04-19T00:03:02.191,1,739,162102,159957
2026-04-19T00:03:02.201,1,740,160603,159303
2026-04-19T00:03:02.211,1,741,160603,159303
2026-04-19T00:03:02.221,1,742,160603,159303
2026-04-19T00:03:02.231,1,743,160603,159303
2026-04-19T00:03:02.241,1,744,159928,159034
2026-04-19T00:03:02.251,1,745,159928,159034
2026-04-19T00:03:02.261,1,746,159928,159034
2026-04-19T00:03:02.271,1,747,159928,159034
2026-04-19T00:03:02.281,1,748,159265,158857
2026-04-19T00:03:02.291,1,749,159265,158857
2026-04-19T00:03:02.301,1,750,159265,158857
2026-04-19T00:03:02.311,1,751,159265,158857
2026-04-19T00:03:02.321,1,752,157323,157952
2026-04-19T00:03:02.331,1,753,157323,157952
2026-04-19T00:03:02.341,1,754,157323,157952
2026-04-19T00:03:02.350,1,755,157323,157952
2026-04-19T00:03:02.360,1,756,156535,157495
2026-04-19T00:03:02.370,1,757,156535,157495
2026-04-19T00:03:02.381,1,758,156535,157495
2026-04-19T00:03:02.391,1,759,156535,157495
2026-04-19T00:03:02.401,1,760,156519,157514
2026-04-19T00:03:02.411,1,761,156519,157514
2026-04-19T00:03:02.421,1,762,156519,157514
2026-04-19T00:03:02.431,1,763,156519,157514
2026-04-19T00:03:02.441,1,764,156060,157251
2026-04-19T00:03:02.451,1,765,156060,157251
2026-04-19T00:03:02.461,1,766,156060,157251
2026-04-19T00:03:02.471,1,767,156060,157251
2026-04-19T00:03:02.481,1,768,155328,156822
2026-04-19T00:03:02.491,1,769,155328,156822
2026-04-19T00:03:02.500,1,770,155328,156822
2026-04-19T00:03:02.510,1,771,155328,156822
2026-04-19T00:03:02.520,1,772,155004,156650
2026-04-19T00:03:02.530,1,773,155004,156650
2026-04-19T00:03:02.541,1,774,155004,156650
2026-04-19T00:03:02.551,1,775,155004,156650
2026-04-19T00:03:02.561,1,776,155174,156798
2026-04-19T00:03:02.571,1,777,155174,156798
2026-04-19T00:03:02.580,1,778,155174,156798
2026-04-19T00:03:02.590,1,779,155174,156798
2026-04-19T00:03:02.600,1,780,155437,156983
2026-04-19T00:03:02.610,1,781,155437,156983
2026-04-19T00:03:02.620,1,782,155437,156983
2026-04-19T00:03:02.630,1,783,155437,156983
2026-04-19T00:03:02.641,1,784,155836,157256
2026-04-19T00:03:02.650,1,785,155836,157256
2026-04-19T00:03:02.661,1,786,155836,157256
2026-04-19T00:03:02.671,1,787,155836,157256
2026-04-19T00:03:02.680,1,788,156540,157714
2026-04-19T00:03:02.691,1,789,156540,157714
2026-04-19T00:03:02.700,1,790,156540,157714
2026-04-19T00:03:02.710,1,791,156540,157714
2026-04-19T00:03:02.720,1,792,157618,158354
2026-04-19T00:03:02.730,1,793,157618,158354
2026-04-19T00:03:02.740,1,794,157618,158354
2026-04-19T00:03:02.750,1,795,157618,158354
2026-04-19T00:03:02.760,1,796,159405,159336
2026-04-19T00:03:02.770,1,797,159405,159336
2026-04-19T00:03:02.780,1,798,159405,159336
2026-04-19T00:03:02.790,1,799,159405,159336
2026-04-19T00:03:02.800,1,800,160982,160141
2026-04-19T00:03:02.810,1,801,160982,160141
2026-04-19T00:03:02.820,1,802,160982,160141
2026-04-19T00:03:02.830,1,803,160982,160141
2026-04-19T00:03:02.840,1,804,161617,160433
2026-04-19T00:03:02.850,1,805,161617,160433
2026-04-19T00:03:02.860,1,806,161617,160433
2026-04-19T00:03:02.870,1,807,161617,160433
2026-04-19T00:03:02.880,1,808,162242,160696
2026-04-19T00:03:02.890,1,809,162242,160696
2026-04-19T00:03:02.900,1,810,162242,160696
2026-04-19T00:03:02.910,1,811,162242,160696
2026-04-19T00:03:02.920,1,812,162473,160772
2026-04-19T00:03:02.930,1,813,162473,160772
2026-04-19T00:03:02.940,1,814,162473,160772
2026-04-19T00:03:02.950,1,815,162473,160772
2026-04-19T00:03:02.960,1,816,162497,160757
2026-04-19T00:03:02.970,1,817,162497,160757
2026-04-19T00:03:02.980,1,818,162497,160757
2026-04-19T00:03:02.990,1,819,162497,160757
2026-04-19T00:03:03.000,1,820,162868,160895
2026-04-19T00:03:03.010,1,821,162868,160895
2026-04-19T00:03:03.020,1,822,162868,160895
2026-04-19T00:03:03.030,1,823,162868,160895
2026-04-19T00:03:03.040,1,824,162808,160916
2026-04-19T00:03:03.050,1,825,162808,160916
2026-04-19T00:03:03.060,1,826,162808,160916
2026-04-19T00:03:03.069,1,827,162808,160916
2026-04-19T00:03:03.080,1,828,161819,160609
2026-04-19T00:03:03.090,1,829,161819,160609
2026-04-19T00:03:03.100,1,830,161819,160609
2026-04-19T00:03:03.110,1,831,161819,160609
2026-04-19T00:03:03.120,1,832,160592,160133
2026-04-19T00:03:03.130,1,833,160592,160133
2026-04-19T00:03:03.140,1,834,160592,160133
2026-04-19T00:03:03.150,1,835,160592,160133
2026-04-19T00:03:03.160,1,836,160259,159907
2026-04-19T00:03:03.170,1,837,160259,159907
2026-04-19T00:03:03.180,1,838,160259,159907
2026-04-19T00:03:03.190,1,839,160259,159907
2026-04-19T00:03:03.199,1,840,161005,160232
2026-04-19T00:03:03.209,1,841,161005,160232
2026-04-19T00:03:03.219,1,842,161005,160232
2026-04-19T00:03:03.229,1,843,161005,160232
2026-04-19T00:03:03.239,1,844,160856,160192
2026-04-19T00:03:03.249,1,845,160856,160192
2026-04-19T00:03:03.259,1,846,160856,160192
2026-04-19T00:03:03.269,1,847,160856,160192
2026-04-19T00:03:03.279,1,848,160706,160049
2026-04-19T00:03:03.289,1,849,160706,160049
2026-04-19T00:03:03.299,1,850,160706,160049
2026-04-19T00:03:03.310,1,851,160706,160049
2026-04-19T00:03:03.320,1,852,161016,160162
2026-04-19T00:03:03.330,1,853,161016,160162
2026-04-19T00:03:03.339,1,854,161016,160162
2026-04-19T00:03:03.349,1,855,161016,160162
2026-04-19T00:03:03.359,1,856,161142,160248
2026-04-19T00:03:03.369,1,857,161142,160248
2026-04-19T00:03:03.379,1,858,161142,160248
2026-04-19T00:03:03.390,1,859,161142,160248
2026-04-19T00:03:03.399,1,860,161407,160356
2026-04-19T00:03:03.409,1,861,161407,160356
2026-04-19T00:03:03.419,1,862,161407,160356
2026-04-19T00:03:03.429,1,863,161407,160356
2026-04-19T00:03:03.440,1,864,161933,160569
2026-04-19T00:03:03.449,1,865,161933,160569
2026-04-19T00:03:03.460,1,866,161933,160569
2026-04-19T00:03:03.470,1,867,161933,160569
2026-04-19T00:03:03.480,1,868,162356,160745
2026-04-19T00:03:03.490,1,869,162356,160745
2026-04-19T00:03:03.499,1,870,162356,160745
2026-04-19T00:03:03.509,1,871,162356,160745
2026-04-19T00:03:03.520,1,872,162638,160861
2026-04-19T00:03:03.529,1,873,162638,160861
2026-04-19T00:03:03.539,1,874,162638,160861
2026-04-19T00:03:03.549,1,875,162638,160861
2026-04-19T00:03:03.559,1,876,162914,161006
2026-04-19T00:03:03.569,1,877,162914,161006
2026-04-19T00:03:03.579,1,878,162914,161006
2026-04-19T00:03:03.589,1,879,162914,161006
2026-04-19T00:03:03.599,1,880,162948,161063
2026-04-19T00:03:03.610,1,881,162948,161063
2026-04-19T00:03:03.619,1,882,162948,161063
2026-04-19T00:03:03.629,1,883,162948,161063
2026-04-19T00:03:03.640,1,884,162907,161050
2026-04-19T00:03:03.649,1,885,162907,161050
2026-04-19T00:03:03.659,1,886,162907,161050
2026-04-19T00:03:03.669,1,887,162907,161050
2026-04-19T00:03:03.679,1,888,162887,161026
2026-04-19T00:03:03.689,1,889,162887,161026
2026-04-19T00:03:03.699,1,890,162887,161026
2026-04-19T00:03:03.709,1,891,162887,161026
2026-04-19T00:03:03.719,1,892,163176,161129
2026-04-19T00:03:03.729,1,893,163176,161129
2026-04-19T00:03:03.739,1,894,163176,161129
2026-04-19T00:03:03.749,1,895,163176,161129
2026-04-19T00:03:03.759,1,896,163295,161146
2026-04-19T00:03:03.769,1,897,163295,161146
2026-04-19T00:03:03.779,1,898,163295,161146
2026-04-19T00:03:03.789,1,899,163295,161146
2026-04-19T00:03:03.799,1,900,163417,161180
2026-04-19T00:03:03.809,1,901,163417,161180
2026-04-19T00:03:03.820,1,902,163417,161180
2026-04-19T00:03:03.829,1,903,163417,161180
2026-04-19T00:03:03.839,1,904,163475,161189
2026-04-19T00:03:03.849,1,905,163475,161189
2026-04-19T00:03:03.859,1,906,163475,161189
2026-04-19T00:03:03.869,1,907,163475,161189
2026-04-19T00:03:03.880,1,908,163726,161273
2026-04-19T00:03:03.889,1,909,163726,161273
2026-04-19T00:03:03.899,1,910,163726,161273
2026-04-19T00:03:03.909,1,911,163726,161273
2026-04-19T00:03:03.919,1,912,163730,161338
2026-04-19T00:03:03.929,1,913,163730,161338
2026-04-19T00:03:03.939,1,914,163730,161338
2026-04-19T00:03:03.949,1,915,163730,161338
2026-04-19T00:03:03.959,1,916,163646,161315
2026-04-19T00:03:03.969,1,917,163646,161315
2026-04-19T00:03:03.978,1,918,163646,161315
2026-04-19T00:03:03.988,1,919,163646,161315
2026-04-19T00:03:03.998,1,920,163848,161361
2026-04-19T00:03:04.008,1,921,163848,161361
2026-04-19T00:03:04.018,1,922,163848,161361
2026-04-19T00:03:04.028,1,923,163848,161361
2026-04-19T00:03:04.038,1,924,163766,161336
2026-04-19T00:03:04.048,1,925,163766,161336
2026-04-19T00:03:04.058,1,926,163766,161336
2026-04-19T00:03:04.068,1,927,163766,161336
2026-04-19T00:03:04.078,1,928,163416,161205
2026-04-19T00:03:04.088,1,929,163416,161205
2026-04-19T00:03:04.098,1,930,163416,161205
2026-04-19T00:03:04.108,1,931,163416,161205
2026-04-19T00:03:04.118,1,932,163272,161142
2026-04-19T00:03:04.128,1,933,163272,161142
2026-04-19T00:03:04.138,1,934,163272,161142
2026-04-19T00:03:04.148,1,935,163272,161142
2026-04-19T00:03:04.158,1,936,163198,161071
2026-04-19T00:03:04.168,1,937,163198,161071
2026-04-19T00:03:04.178,1,938,163198,161071
2026-04-19T00:03:04.188,1,939,163198,161071
2026-04-19T00:03:04.198,1,940,163510,161091
2026-04-19T00:03:04.208,1,941,163510,161091
2026-04-19T00:03:04.218,1,942,163510,161091
2026-04-19T00:03:04.228,1,943,163510,161091
2026-04-19T00:03:04.238,1,944,163971,161164
2026-04-19T00:03:04.249,1,945,163971,161164
2026-04-19T00:03:04.258,1,946,163971,161164
2026-04-19T00:03:04.268,1,947,163971,161164
2026-04-19T00:03:04.278,1,948,164113,161155
2026-04-19T00:03:04.289,1,949,164113,161155
2026-04-19T00:03:04.298,1,950,164113,161155
2026-04-19T00:03:04.309,1,951,164113,161155
2026-04-19T00:03:04.318,1,952,163892,161069
2026-04-19T00:03:04.329,1,953,163892,161069
2026-04-19T00:03:04.338,1,954,163892,161069
2026-04-19T00:03:04.348,1,955,163892,161069
2026-04-19T00:03:04.358,1,956,163792,161016
2026-04-19T00:03:04.368,1,957,163792,161016
2026-04-19T00:03:04.379,1,958,163792,161016
2026-04-19T00:03:04.388,1,959,163792,161016
2026-04-19T00:03:04.398,1,960,163893,161006
2026-04-19T00:03:04.408,1,961,163893,161006
2026-04-19T00:03:04.418,1,962,163893,161006
2026-04-19T00:03:04.428,1,963,163893,161006
2026-04-19T00:03:04.438,1,964,163999,160976
2026-04-19T00:03:04.448,1,965,163999,160976
2026-04-19T00:03:04.458,1,966,163999,160976
2026-04-19T00:03:04.468,1,967,163999,160976
2026-04-19T00:03:04.479,1,968,163996,160921
2026-04-19T00:03:04.488,1,969,163996,160921
2026-04-19T00:03:04.498,1,970,163996,160921
2026-04-19T00:03:04.508,1,971,163996,160921
2026-04-19T00:03:04.518,1,972,163838,160868
2026-04-19T00:03:04.528,1,973,163838,160868
2026-04-19T00:03:04.538,1,974,163838,160868
2026-04-19T00:03:04.548,1,975,163838,160868
2026-04-19T00:03:04.558,1,976,163970,160869
2026-04-19T00:03:04.568,1,977,163970,160869
2026-04-19T00:03:04.578,1,978,163970,160869
2026-04-19T00:03:04.588,1,979,163970,160869
2026-04-19T00:03:04.598,1,980,164010,160855
2026-04-19T00:03:04.609,1,981,164010,160855
2026-04-19T00:03:04.618,1,982,164010,160855
2026-04-19T00:03:04.628,1,983,164010,160855
2026-04-19T00:03:04.638,1,984,163846,160825
2026-04-19T00:03:04.648,1,985,163846,160825
2026-04-19T00:03:04.658,1,986,163846,160825
2026-04-19T00:03:04.668,1,987,163846,160825
2026-04-19T00:03:04.678,1,988,163709,160765
2026-04-19T00:03:04.688,1,989,163709,160765
2026-04-19T00:03:04.698,1,990,163709,160765
2026-04-19T00:03:04.708,1,991,163709,160765
2026-04-19T00:03:04.717,1,992,163740,160710
2026-04-19T00:03:04.728,1,993,163740,160710
2026-04-19T00:03:04.737,1,994,163740,160710
2026-04-19T00:03:04.747,1,995,163740,160710
2026-04-19T00:03:04.757,1,996,163407,160630
2026-04-19T00:03:04.767,1,997,163407,160630
2026-04-19T00:03:04.777,1,998,163407,160630
2026-04-19T00:03:04.788,1,999,163407,160630
2026-04-19T00:03:04.797,1,1000,163317,160653
2026-04-19T00:03:04.807,1,1001,163317,160653
2026-04-19T00:03:08.003,2,0,163744,160942
2026-04-19T00:03:08.013,2,1,163744,160942
2026-04-19T00:03:08.023,2,2,163744,160942
2026-04-19T00:03:08.033,2,3,163546,160866
2026-04-19T00:03:08.043,2,4,163546,160866
2026-04-19T00:03:08.054,2,5,163546,160866
2026-04-19T00:03:08.064,2,6,163546,160866
2026-04-19T00:03:08.074,2,7,163574,160917
2026-04-19T00:03:08.084,2,8,163574,160917
2026-04-19T00:03:08.094,2,9,163574,160917
2026-04-19T00:03:08.104,2,10,163574,160917
2026-04-19T00:03:08.114,2,11,163576,160980
2026-04-19T00:03:08.124,2,12,163576,160980
2026-04-19T00:03:08.134,2,13,163576,160980
2026-04-19T00:03:08.144,2,14,163576,160980
2026-04-19T00:03:08.154,2,15,163451,160997
2026-04-19T00:03:08.164,2,16,163451,160997
2026-04-19T00:03:08.173,2,17,163451,160997
2026-04-19T00:03:08.183,2,18,163451,160997
2026-04-19T00:03:08.193,2,19,163566,161052
2026-04-19T00:03:08.204,2,20,163566,161052
2026-04-19T00:03:08.213,2,21,163566,161052
2026-04-19T00:03:08.224,2,22,163566,161052
2026-04-19T00:03:08.234,2,23,163694,161143
2026-04-19T00:03:08.245,2,24,163694,161143
2026-04-19T00:03:08.254,2,25,163694,161143
2026-04-19T00:03:08.263,2,26,163694,161143
2026-04-19T00:03:08.274,2,27,163692,161179
2026-04-19T00:03:08.284,2,28,163692,161179
2026-04-19T00:03:08.293,2,29,163692,161179
2026-04-19T00:03:08.303,2,30,163692,161179
2026-04-19T00:03:08.314,2,31,163726,161234
2026-04-19T00:03:08.323,2,32,163726,161234
2026-04-19T00:03:08.333,2,33,163726,161234
2026-04-19T00:03:08.344,2,34,163726,161234
2026-04-19T00:03:08.353,2,35,163640,161273
2026-04-19T00:03:08.363,2,36,163640,161273
2026-04-19T00:03:08.373,2,37,163640,161273
2026-04-19T00:03:08.383,2,38,163640,161273
2026-04-19T00:03:08.393,2,39,163358,161205
2026-04-19T00:03:08.404,2,40,163358,161205
2026-04-19T00:03:08.413,2,41,163358,161205
2026-04-19T00:03:08.423,2,42,163358,161205
2026-04-19T00:03:08.433,2,43,163117,161142
2026-04-19T00:03:08.443,2,44,163117,161142
2026-04-19T00:03:08.453,2,45,163117,161142
2026-04-19T00:03:08.463,2,46,163117,161142
2026-04-19T00:03:08.473,2,47,162687,160981
2026-04-19T00:03:08.483,2,48,162687,160981
2026-04-19T00:03:08.493,2,49,162687,160981
2026-04-19T00:03:08.503,2,50,162687,160981
2026-04-19T00:03:08.513,2,51,162668,160979
2026-04-19T00:03:08.524,2,52,162668,160979
2026-04-19T00:03:08.533,2,53,162668,160979
2026-04-19T00:03:08.543,2,54,162668,160979
2026-04-19T00:03:08.553,2,55,162712,161007
2026-04-19T00:03:08.563,2,56,162712,161007
2026-04-19T00:03:08.573,2,57,162712,161007
2026-04-19T00:03:08.583,2,58,162712,161007
2026-04-19T00:03:08.593,2,59,162858,161070
2026-04-19T00:03:08.603,2,60,162858,161070
2026-04-19T00:03:08.613,2,61,162858,161070
2026-04-19T00:03:08.623,2,62,162858,161070
2026-04-19T00:03:08.633,2,63,162712,161012
2026-04-19T00:03:08.643,2,64,162712,161012
2026-04-19T00:03:08.653,2,65,162712,161012
2026-04-19T00:03:08.663,2,66,162712,161012
2026-04-19T00:03:08.673,2,67,162558,160936
2026-04-19T00:03:08.682,2,68,162558,160936
2026-04-19T00:03:08.693,2,69,162558,160936
2026-04-19T00:03:08.702,2,70,162558,160936
2026-04-19T00:03:08.713,2,71,162548,160898
2026-04-19T00:03:08.722,2,72,162548,160898
2026-04-19T00:03:08.733,2,73,162548,160898
2026-04-19T00:03:08.743,2,74,162548,160898
2026-04-19T00:03:08.753,2,75,162599,160904
2026-04-19T00:03:08.763,2,76,162599,160904
2026-04-19T00:03:08.773,2,77,162599,160904
2026-04-19T00:03:08.783,2,78,162599,160904
2026-04-19T00:03:08.793,2,79,162595,160888
2026-04-19T00:03:08.803,2,80,162595,160888
2026-04-19T00:03:08.813,2,81,162595,160888
2026-04-19T00:03:08.823,2,82,162595,160888
2026-04-19T00:03:08.833,2,83,162576,160877
2026-04-19T00:03:08.842,2,84,162576,160877
2026-04-19T00:03:08.853,2,85,162576,160877
2026-04-19T00:03:08.862,2,86,162576,160877
2026-04-19T00:03:08.873,2,87,162547,160889
2026-04-19T00:03:08.883,2,88,162547,160889
2026-04-19T00:03:08.893,2,89,162547,160889
2026-04-19T00:03:08.902,2,90,162547,160889
2026-04-19T00:03:08.912,2,91,162619,160866
2026-04-19T00:03:08.922,2,92,162619,160866
2026-04-19T00:03:08.932,2,93,162619,160866
2026-04-19T00:03:08.942,2,94,162619,160866
2026-04-19T00:03:08.952,2,95,162857,160912
2026-04-19T00:03:08.962,2,96,162857,160912
2026-04-19T00:03:08.972,2,97,162857,160912
2026-04-19T00:03:08.983,2,98,162857,160912
2026-04-19T00:03:08.993,2,99,162941,160948
2026-04-19T00:03:09.003,2,100,162941,160948
2026-04-19T00:03:09.013,2,101,162941,160948
2026-04-19T00:03:09.023,2,102,162941,160948
2026-04-19T00:03:09.032,2,103,163061,160957
2026-04-19T00:03:09.043,2,104,163061,160957
2026-04-19T00:03:09.053,2,105,163061,160957
2026-04-19T00:03:09.062,2,106,163061,160957
2026-04-19T00:03:09.073,2,107,163247,160971
2026-04-19T00:03:09.082,2,108,163247,160971
2026-04-19T00:03:09.093,2,109,163247,160971
2026-04-19T00:03:09.103,2,110,163247,160971
2026-04-19T00:03:09.112,2,111,163146,160926
2026-04-19T00:03:09.122,2,112,163146,160926
2026-04-19T00:03:09.133,2,113,163146,160926
2026-04-19T00:03:09.142,2,114,163146,160926
2026-04-19T00:03:09.153,2,115,163057,160911
2026-04-19T00:03:09.163,2,116,163057,160911
2026-04-19T00:03:09.173,2,117,163057,160911
2026-04-19T00:03:09.182,2,118,163057,160911
2026-04-19T00:03:09.193,2,119,163116,160904
2026-04-19T00:03:09.202,2,120,163116,160904
2026-04-19T00:03:09.212,2,121,163116,160904
2026-04-19T00:03:09.222,2,122,163116,160904
2026-04-19T00:03:09.232,2,123,162807,160764
2026-04-19T00:03:09.242,2,124,162807,160764
2026-04-19T00:03:09.252,2,125,162807,160764
2026-04-19T00:03:09.262,2,126,162807,160764
2026-04-19T00:03:09.272,2,127,162750,160763
2026-04-19T00:03:09.282,2,128,162750,160763
2026-04-19T00:03:09.292,2,129,162750,160763
2026-04-19T00:03:09.302,2,130,162750,160763
2026-04-19T00:03:09.312,2,131,162879,160866
2026-04-19T00:03:09.322,2,132,162879,160866
2026-04-19T00:03:09.332,2,133,162879,160866
2026-04-19T00:03:09.342,2,134,162879,160866
2026-04-19T00:03:09.352,2,135,162933,160941
2026-04-19T00:03:09.362,2,136,162933,160941
2026-04-19T00:03:09.372,2,137,162933,160941
2026-04-19T00:03:09.382,2,138,162933,160941
2026-04-19T00:03:09.392,2,139,162662,160857
2026-04-19T00:03:09.402,2,140,162662,160857
2026-04-19T00:03:09.412,2,141,162662,160857
2026-04-19T00:03:09.422,2,142,162662,160857
2026-04-19T00:03:09.432,2,143,162684,160867
2026-04-19T00:03:09.442,2,144,162684,160867
2026-04-19T00:03:09.452,2,145,162684,160867
2026-04-19T00:03:09.462,2,146,162684,160867
2026-04-19T00:03:09.472,2,147,162886,160976
2026-04-19T00:03:09.482,2,148,162886,160976
2026-04-19T00:03:09.492,2,149,162886,160976
2026-04-19T00:03:09.502,2,150,162886,160976
2026-04-19T00:03:09.512,2,151,162842,160985
2026-04-19T00:03:09.522,2,152,162842,160985
2026-04-19T00:03:09.532,2,153,162842,160985
2026-04-19T00:03:09.542,2,154,162842,160985
2026-04-19T00:03:09.552,2,155,162721,160954
2026-04-19T00:03:09.562,2,156,162721,160954
2026-04-19T00:03:09.572,2,157,162721,160954
2026-04-19T00:03:09.581,2,158,162721,160954
2026-04-19T00:03:09.591,2,159,162743,160961
2026-04-19T00:03:09.601,2,160,162743,160961
2026-04-19T00:03:09.611,2,161,162743,160961
2026-04-19T00:03:09.621,2,162,162743,160961
2026-04-19T00:03:09.631,2,163,162863,161007
2026-04-19T00:03:09.641,2,164,162863,161007
2026-04-19T00:03:09.651,2,165,162863,161007
2026-04-19T00:03:09.662,2,166,162863,161007
2026-04-19T00:03:09.671,2,167,163176,161097
2026-04-19T00:03:09.681,2,168,163176,161097
2026-04-19T00:03:09.691,2,169,163176,161097
2026-04-19T00:03:09.702,2,170,163176,161097
2026-04-19T00:03:09.711,2,171,163577,161221
2026-04-19T00:03:09.721,2,172,163577,161221
2026-04-19T00:03:09.731,2,173,163577,161221
2026-04-19T00:03:09.741,2,174,163577,161221
2026-04-19T00:03:09.751,2,175,163717,161284
2026-04-19T00:03:09.761,2,176,163717,161284
2026-04-19T00:03:09.771,2,177,163717,161284
2026-04-19T00:03:09.781,2,178,163717,161284
2026-04-19T00:03:09.791,2,179,163890,161317
2026-04-19T00:03:09.801,2,180,163890,161317
2026-04-19T00:03:09.811,2,181,163890,161317
2026-04-19T00:03:09.821,2,182,163890,161317
2026-04-19T00:03:09.831,2,183,164144,161425
2026-04-19T00:03:09.841,2,184,164144,161425
2026-04-19T00:03:09.851,2,185,164144,161425
2026-04-19T00:03:09.861,2,186,164144,161425
2026-04-19T00:03:09.871,2,187,164007,161403
2026-04-19T00:03:09.881,2,188,164007,161403
2026-04-19T00:03:09.891,2,189,164007,161403
2026-04-19T00:03:09.901,2,190,164007,161403
2026-04-19T00:03:09.911,2,191,163920,161390
2026-04-19T00:03:09.921,2,192,163920,161390
2026-04-19T00:03:09.931,2,193,163920,161390
2026-04-19T00:03:09.941,2,194,163920,161390
2026-04-19T00:03:09.951,2,195,163999,161390
2026-04-19T00:03:09.961,2,196,163999,161390
2026-04-19T00:03:09.971,2,197,163999,161390
2026-04-19T00:03:09.981,2,198,163999,161390
2026-04-19T00:03:09.991,2,199,163791,161326
2026-04-19T00:03:10.001,2,200,163791,161326
2026-04-19T00:03:10.011,2,201,163791,161326
2026-04-19T00:03:10.021,2,202,163791,161326
2026-04-19T00:03:10.031,2,203,163689,161305
2026-04-19T00:03:10.041,2,204,163689,161305
2026-04-19T00:03:10.051,2,205,163689,161305
2026-04-19T00:03:10.061,2,206,163689,161305
2026-04-19T00:03:10.071,2,207,163934,161361
2026-04-19T00:03:10.081,2,208,163934,161361
2026-04-19T00:03:10.091,2,209,163934,161361
2026-04-19T00:03:10.101,2,210,163934,161361
2026-04-19T00:03:10.111,2,211,163950,161353
2026-04-19T00:03:10.121,2,212,163950,161353
2026-04-19T00:03:10.131,2,213,163950,161353
2026-04-19T00:03:10.141,2,214,163950,161353
2026-04-19T00:03:10.151,2,215,163794,161269
2026-04-19T00:03:10.161,2,216,163794,161269
2026-04-19T00:03:10.171,2,217,163794,161269
2026-04-19T00:03:10.181,2,218,163794,161269
2026-04-19T00:03:10.191,2,219,163853,161226
2026-04-19T00:03:10.201,2,220,163853,161226
2026-04-19T00:03:10.211,2,221,163853,161226
2026-04-19T00:03:10.221,2,222,163853,161226
2026-04-19T00:03:10.231,2,223,163688,161172
2026-04-19T00:03:10.241,2,224,163688,161172
2026-04-19T00:03:10.251,2,225,163688,161172
2026-04-19T00:03:10.261,2,226,163688,161172
2026-04-19T00:03:10.271,2,227,163241,160985
2026-04-19T00:03:10.281,2,228,163241,160985
2026-04-19T00:03:10.291,2,229,163241,160985
2026-04-19T00:03:10.301,2,230,163241,160985
2026-04-19T00:03:10.311,2,231,163304,160727
2026-04-19T00:03:10.321,2,232,163304,160727
2026-04-19T00:03:10.331,2,233,163304,160727
2026-04-19T00:03:10.341,2,234,163304,160727
2026-04-19T00:03:10.351,2,235,163250,160597
2026-04-19T00:03:10.361,2,236,163250,160597
2026-04-19T00:03:10.371,2,237,163250,160597
2026-04-19T00:03:10.380,2,238,163250,160597
2026-04-19T00:03:10.390,2,239,162954,160387
2026-04-19T00:03:10.400,2,240,162954,160387
2026-04-19T00:03:10.411,2,241,162954,160387
2026-04-19T00:03:10.420,2,242,162954,160387
2026-04-19T00:03:10.431,2,243,162710,160169
2026-04-19T00:03:10.440,2,244,162710,160169
2026-04-19T00:03:10.451,2,245,162710,160169
2026-04-19T00:03:10.461,2,246,162710,160169
2026-04-19T00:03:10.471,2,247,161677,159831
2026-04-19T00:03:10.480,2,248,161677,159831
2026-04-19T00:03:10.491,2,249,161677,159831
2026-04-19T00:03:10.501,2,250,161677,159831
2026-04-19T00:03:10.511,2,251,161191,159640
2026-04-19T00:03:10.521,2,252,161191,159640
2026-04-19T00:03:10.531,2,253,161191,159640
2026-04-19T00:03:10.541,2,254,161191,159640
2026-04-19T00:03:10.551,2,255,161036,159675
2026-04-19T00:03:10.560,2,256,161036,159675
2026-04-19T00:03:10.571,2,257,161036,159675
2026-04-19T00:03:10.581,2,258,161036,159675
2026-04-19T00:03:10.591,2,259,160354,159547
2026-04-19T00:03:10.601,2,260,160354,159547
2026-04-19T00:03:10.611,2,261,160354,159547
2026-04-19T00:03:10.621,2,262,160354,159547
2026-04-19T00:03:10.631,2,263,159124,159104
2026-04-19T00:03:10.640,2,264,159124,159104
2026-04-19T00:03:10.650,2,265,159124,159104
2026-04-19T00:03:10.660,2,266,159124,159104
2026-04-19T00:03:10.670,2,267,158208,158705
2026-04-19T00:03:10.681,2,268,158208,158705
2026-04-19T00:03:10.691,2,269,158208,158705
2026-04-19T00:03:10.700,2,270,158208,158705
2026-04-19T00:03:10.710,2,271,156745,157957
2026-04-19T00:03:10.720,2,272,156745,157957
2026-04-19T00:03:10.730,2,273,156745,157957
2026-04-19T00:03:10.740,2,274,156745,157957
2026-04-19T00:03:10.751,2,275,155400,157204
2026-04-19T00:03:10.760,2,276,155400,157204
2026-04-19T00:03:10.771,2,277,155400,157204
2026-04-19T00:03:10.780,2,278,155400,157204
2026-04-19T00:03:10.790,2,279,154290,156517
2026-04-19T00:03:10.800,2,280,154290,156517
2026-04-19T00:03:10.810,2,281,154290,156517
2026-04-19T00:03:10.820,2,282,154290,156517
2026-04-19T00:03:10.830,2,283,153741,156166
2026-04-19T00:03:10.840,2,284,153741,156166
2026-04-19T00:03:10.850,2,285,153741,156166
2026-04-19T00:03:10.860,2,286,153741,156166
2026-04-19T00:03:10.870,2,287,154150,156442
2026-04-19T00:03:10.880,2,288,154150,156442
2026-04-19T00:03:10.890,2,289,154150,156442
2026-04-19T00:03:10.900,2,290,154150,156442
2026-04-19T00:03:10.910,2,291,155553,157326
2026-04-19T00:03:10.920,2,292,155553,157326
2026-04-19T00:03:10.930,2,293,155553,157326
2026-04-19T00:03:10.940,2,294,155553,157326
2026-04-19T00:03:10.950,2,295,157507,158525
2026-04-19T00:03:10.960,2,296,157507,158525
2026-04-19T00:03:10.970,2,297,157507,158525
2026-04-19T00:03:10.980,2,298,157507,158525
2026-04-19T00:03:10.989,2,299,158855,159277
2026-04-19T00:03:11.000,2,300,158855,159277
2026-04-19T00:03:11.009,2,301,158855,159277
2026-04-19T00:03:11.020,2,302,158855,159277
2026-04-19T00:03:11.030,2,303,159734,159726
2026-04-19T00:03:11.040,2,304,159734,159726
2026-04-19T00:03:11.050,2,305,159734,159726
2026-04-19T00:03:11.060,2,306,159734,159726
2026-04-19T00:03:11.070,2,307,160808,160183
2026-04-19T00:03:11.080,2,308,160808,160183
2026-04-19T00:03:11.090,2,309,160808,160183
2026-04-19T00:03:11.100,2,310,160808,160183
2026-04-19T00:03:11.110,2,311,162058,160700
2026-04-19T00:03:11.120,2,312,162058,160700
2026-04-19T00:03:11.130,2,313,162058,160700
2026-04-19T00:03:11.140,2,314,162058,160700
2026-04-19T00:03:11.150,2,315,162669,160924
2026-04-19T00:03:11.160,2,316,162669,160924
2026-04-19T00:03:11.170,2,317,162669,160924
2026-04-19T00:03:11.180,2,318,162669,160924
2026-04-19T00:03:11.190,2,319,162844,160988
2026-04-19T00:03:11.200,2,320,162844,160988
2026-04-19T00:03:11.210,2,321,162844,160988
2026-04-19T00:03:11.220,2,322,162844,160988
2026-04-19T00:03:11.230,2,323,163147,161107
2026-04-19T00:03:11.240,2,324,163147,161107
2026-04-19T00:03:11.250,2,325,163147,161107
2026-04-19T00:03:11.260,2,326,163147,161107
2026-04-19T00:03:11.270,2,327,163348,161144
2026-04-19T00:03:11.279,2,328,163348,161144
2026-04-19T00:03:11.290,2,329,163348,161144
2026-04-19T00:03:11.300,2,330,163348,161144
2026-04-19T00:03:11.310,2,331,163568,161213
2026-04-19T00:03:11.320,2,332,163568,161213
2026-04-19T00:03:11.330,2,333,163568,161213
2026-04-19T00:03:11.340,2,334,163568,161213
2026-04-19T00:03:11.350,2,335,163647,161222
2026-04-19T00:03:11.360,2,336,163647,161222
2026-04-19T00:03:11.370,2,337,163647,161222
2026-04-19T00:03:11.380,2,338,163647,161222
2026-04-19T00:03:11.390,2,339,163583,161219
2026-04-19T00:03:11.400,2,340,163583,161219
2026-04-19T00:03:11.410,2,341,163583,161219
2026-04-19T00:03:11.420,2,342,163583,161219
2026-04-19T00:03:11.429,2,343,163524,161179
2026-04-19T00:03:11.440,2,344,163524,161179
2026-04-19T00:03:11.449,2,345,163524,161179
2026-04-19T00:03:11.459,2,346,163524,161179
2026-04-19T00:03:11.469,2,347,163331,161109
2026-04-19T00:03:11.479,2,348,163331,161109
2026-04-19T00:03:11.490,2,349,163331,161109
2026-04-19T00:03:11.499,2,350,163331,161109
2026-04-19T00:03:11.509,2,351,163295,161099
2026-04-19T00:03:11.519,2,352,163295,161099
2026-04-19T00:03:11.530,2,353,163295,161099
2026-04-19T00:03:11.539,2,354,163295,161099
2026-04-19T00:03:11.550,2,355,163383,161157
2026-04-19T00:03:11.559,2,356,163383,161157
2026-04-19T00:03:11.569,2,357,163383,161157
2026-04-19T00:03:11.580,2,358,163383,161157
2026-04-19T00:03:11.590,2,359,163237,161115
2026-04-19T00:03:11.599,2,360,163237,161115
2026-04-19T00:03:11.609,2,361,163237,161115
2026-04-19T00:03:11.619,2,362,163237,161115
2026-04-19T00:03:11.629,2,363,163165,161105
2026-04-19T00:03:11.639,2,364,163165,161105
2026-04-19T00:03:11.649,2,365,163165,161105
2026-04-19T00:03:11.660,2,366,163165,161105
2026-04-19T00:03:11.670,2,367,163380,161167
2026-04-19T00:03:11.679,2,368,163380,161167
2026-04-19T00:03:11.689,2,369,163380,161167
2026-04-19T00:03:11.699,2,370,163380,161167
2026-04-19T00:03:11.709,2,371,163569,161237
2026-04-19T00:03:11.719,2,372,163569,161237
2026-04-19T00:03:11.729,2,373,163569,161237
2026-04-19T00:03:11.739,2,374,163569,161237
2026-04-19T00:03:11.749,2,375,163573,161232
2026-04-19T00:03:11.759,2,376,163573,161232
2026-04-19T00:03:11.770,2,377,163573,161232
2026-04-19T00:03:11.779,2,378,163573,161232
2026-04-19T00:03:11.789,2,379,163548,161228
2026-04-19T00:03:11.799,2,380,163548,161228
2026-04-19T00:03:11.809,2,381,163548,161228
2026-04-19T00:03:11.819,2,382,163548,161228
2026-04-19T00:03:11.829,2,383,163382,161180
2026-04-19T00:03:11.839,2,384,163382,161180
2026-04-19T00:03:11.849,2,385,163382,161180
2026-04-19T00:03:11.859,2,386,163382,161180
2026-04-19T00:03:11.869,2,387,163351,161149
2026-04-19T00:03:11.879,2,388,163351,161149
2026-04-19T00:03:11.889,2,389,163351,161149
2026-04-19T00:03:11.899,2,390,163351,161149
2026-04-19T00:03:11.909,2,391,163759,161242
2026-04-19T00:03:11.919,2,392,163759,161242
2026-04-19T00:03:11.929,2,393,163759,161242
2026-04-19T00:03:11.939,2,394,163759,161242
2026-04-19T00:03:11.949,2,395,164090,161364
2026-04-19T00:03:11.959,2,396,164090,161364
2026-04-19T00:03:11.969,2,397,164090,161364
2026-04-19T00:03:11.979,2,398,164090,161364
2026-04-19T00:03:11.989,2,399,164082,161344
2026-04-19T00:03:11.999,2,400,164082,161344
2026-04-19T00:03:12.009,2,401,164082,161344
2026-04-19T00:03:12.019,2,402,164082,161344
2026-04-19T00:03:12.029,2,403,164287,161423
2026-04-19T00:03:12.038,2,404,164287,161423
2026-04-19T00:03:12.048,2,405,164287,161423
2026-04-19T00:03:12.058,2,406,164287,161423
2026-04-19T00:03:12.068,2,407,164474,161523
2026-04-19T00:03:12.078,2,408,164474,161523
2026-04-19T00:03:12.088,2,409,164474,161523
2026-04-19T00:03:12.098,2,410,164474,161523
2026-04-19T00:03:12.108,2,411,164379,161518
2026-04-19T00:03:12.118,2,412,164379,161518
2026-04-19T00:03:12.128,2,413,164379,161518
2026-04-19T00:03:12.138,2,414,164379,161518
2026-04-19T00:03:12.148,2,415,164381,161536
2026-04-19T00:03:12.158,2,416,164381,161536
2026-04-19T00:03:12.168,2,417,164381,161536
2026-04-19T00:03:12.178,2,418,164381,161536
2026-04-19T00:03:12.188,2,419,164423,161554
2026-04-19T00:03:12.198,2,420,164423,161554
2026-04-19T00:03:12.208,2,421,164423,161554
2026-04-19T00:03:12.219,2,422,164423,161554
2026-04-19T00:03:12.228,2,423,164572,161594
2026-04-19T00:03:12.239,2,424,164572,161594
2026-04-19T00:03:12.248,2,425,164572,161594
2026-04-19T00:03:12.258,2,426,164572,161594
2026-04-19T00:03:12.268,2,427,164648,161620
2026-04-19T00:03:12.278,2,428,164648,161620
2026-04-19T00:03:12.288,2,429,164648,161620
2026-04-19T00:03:12.298,2,430,164648,161620
2026-04-19T00:03:12.308,2,431,164888,161663
2026-04-19T00:03:12.318,2,432,164888,161663
2026-04-19T00:03:12.329,2,433,164888,161663
2026-04-19T00:03:12.338,2,434,164888,161663
2026-04-19T00:03:12.348,2,435,164831,161640
2026-04-19T00:03:12.358,2,436,164831,161640
2026-04-19T00:03:12.368,2,437,164831,161640
2026-04-19T00:03:12.378,2,438,164831,161640
2026-04-19T00:03:12.389,2,439,164865,161598
2026-04-19T00:03:12.398,2,440,164865,161598
2026-04-19T00:03:12.408,2,441,164865,161598
2026-04-19T00:03:12.418,2,442,164865,161598
2026-04-19T00:03:12.428,2,443,164993,161586
2026-04-19T00:03:12.438,2,444,164993,161586
2026-04-19T00:03:12.448,2,445,164993,161586
2026-04-19T00:03:12.458,2,446,164993,161586
2026-04-19T00:03:12.468,2,447,164974,161539
2026-04-19T00:03:12.478,2,448,164974,161539
2026-04-19T00:03:12.488,2,449,164974,161539
2026-04-19T00:03:12.498,2,450,164974,161539
2026-04-19T00:03:12.508,2,451,165021,161458
2026-04-19T00:03:12.518,2,452,165021,161458
2026-04-19T00:03:12.528,2,453,165021,161458
2026-04-19T00:03:12.538,2,454,165021,161458
2026-04-19T00:03:12.548,2,455,165044,161412
2026-04-19T00:03:12.558,2,456,165044,161412
2026-04-19T00:03:12.568,2,457,165044,161412
2026-04-19T00:03:12.578,2,458,165044,161412
2026-04-19T00:03:12.588,2,459,164927,161310
2026-04-19T00:03:12.598,2,460,164927,161310
2026-04-19T00:03:12.608,2,461,164927,161310
2026-04-19T00:03:12.618,2,462,164927,161310
2026-04-19T00:03:12.628,2,463,165089,161270
2026-04-19T00:03:12.638,2,464,165089,161270
2026-04-19T00:03:12.648,2,465,165089,161270
2026-04-19T00:03:12.658,2,466,165089,161270
2026-04-19T00:03:12.668,2,467,165299,161241
2026-04-19T00:03:12.678,2,468,165299,161241
2026-04-19T00:03:12.688,2,469,165299,161241
2026-04-19T00:03:12.698,2,470,165299,161241
2026-04-19T00:03:12.708,2,471,165296,161173
2026-04-19T00:03:12.718,2,472,165296,161173
2026-04-19T00:03:12.728,2,473,165296,161173
2026-04-19T00:03:12.738,2,474,165296,161173
2026-04-19T00:03:12.748,2,475,165356,161096
2026-04-19T00:03:12.758,2,476,165356,161096
2026-04-19T00:03:12.767,2,477,165356,161096
2026-04-19T00:03:12.777,2,478,165356,161096
2026-04-19T00:03:12.787,2,479,165391,161152
2026-04-19T00:03:12.798,2,480,165391,161152
2026-04-19T00:03:12.808,2,481,165391,161152
2026-04-19T00:03:12.818,2,482,165391,161152
2026-04-19T00:03:12.827,2,483,165285,161258
2026-04-19T00:03:12.838,2,484,165285,161258
2026-04-19T00:03:12.848,2,485,165285,161258
2026-04-19T00:03:12.858,2,486,165285,161258
2026-04-19T00:03:12.868,2,487,165077,161323
2026-04-19T00:03:12.878,2,488,165077,161323
2026-04-19T00:03:12.888,2,489,165077,161323
2026-04-19T00:03:12.898,2,490,165077,161323
2026-04-19T00:03:12.908,2,491,164770,161353
2026-04-19T00:03:12.918,2,492,164770,161353
2026-04-19T00:03:12.928,2,493,164770,161353
2026-04-19T00:03:12.938,2,494,164770,161353
2026-04-19T00:03:12.948,2,495,164553,161376
2026-04-19T00:03:12.958,2,496,164553,161376
2026-04-19T00:03:12.968,2,497,164553,161376
2026-04-19T00:03:12.978,2,498,164553,161376
2026-04-19T00:03:12.988,2,499,164525,161467
2026-04-19T00:03:12.998,2,500,164525,161467
2026-04-19T00:03:13.008,2,501,164525,161467
2026-04-19T00:03:13.018,2,502,164525,161467
2026-04-19T00:03:13.027,2,503,164657,161558
2026-04-19T00:03:13.037,2,504,164657,161558
2026-04-19T00:03:13.047,2,505,164657,161558
2026-04-19T00:03:13.057,2,506,164657,161558
2026-04-19T00:03:13.067,2,507,164372,161504
2026-04-19T00:03:13.077,2,508,164372,161504
2026-04-19T00:03:13.087,2,509,164372,161504
2026-04-19T00:03:13.097,2,510,164372,161504
2026-04-19T00:03:13.108,2,511,164177,161440
2026-04-19T00:03:13.117,2,512,164177,161440
2026-04-19T00:03:13.127,2,513,164177,161440
2026-04-19T00:03:13.138,2,514,164177,161440
2026-04-19T00:03:13.148,2,515,164108,161398
2026-04-19T00:03:13.157,2,516,164108,161398
2026-04-19T00:03:13.168,2,517,164108,161398
2026-04-19T00:03:13.177,2,518,164108,161398
2026-04-19T00:03:13.188,2,519,163997,161355
2026-04-19T00:03:13.198,2,520,163997,161355
2026-04-19T00:03:13.207,2,521,163997,161355
2026-04-19T00:03:13.218,2,522,163997,161355
2026-04-19T00:03:13.227,2,523,163937,161317
2026-04-19T00:03:13.237,2,524,163937,161317
2026-04-19T00:03:13.247,2,525,163937,161317
2026-04-19T00:03:13.258,2,526,163937,161317
2026-04-19T00:03:13.267,2,527,163933,161321
2026-04-19T00:03:13.277,2,528,163933,161321
2026-04-19T00:03:13.287,2,529,163933,161321
2026-04-19T00:03:13.297,2,530,163933,161321
2026-04-19T00:03:13.307,2,531,163918,161315
2026-04-19T00:03:13.317,2,532,163918,161315
2026-04-19T00:03:13.327,2,533,163918,161315
2026-04-19T00:03:13.337,2,534,163918,161315
2026-04-19T00:03:13.347,2,535,163935,161291
2026-04-19T00:03:13.357,2,536,163935,161291
2026-04-19T00:03:13.368,2,537,163935,161291
2026-04-19T00:03:13.378,2,538,163935,161291
2026-04-19T00:03:13.387,2,539,163960,161301
2026-04-19T00:03:13.397,2,540,163960,161301
2026-04-19T00:03:13.407,2,541,163960,161301
2026-04-19T00:03:13.417,2,542,163960,161301
2026-04-19T00:03:13.427,2,543,164003,161318
2026-04-19T00:03:13.437,2,544,164003,161318
2026-04-19T00:03:13.447,2,545,164003,161318
2026-04-19T00:03:13.457,2,546,164003,161318
2026-04-19T00:03:13.467,2,547,164121,161337
2026-04-19T00:03:13.477,2,548,164121,161337
2026-04-19T00:03:13.487,2,549,164121,161337
2026-04-19T00:03:13.497,2,550,164121,161337
2026-04-19T00:03:13.507,2,551,164211,161374
2026-04-19T00:03:13.516,2,552,164211,161374
2026-04-19T00:03:13.527,2,553,164211,161374
2026-04-19T00:03:13.537,2,554,164211,161374
2026-04-19T00:03:13.547,2,555,164007,161354
2026-04-19T00:03:13.557,2,556,164007,161354
2026-04-19T00:03:13.567,2,557,164007,161354
2026-04-19T00:03:13.577,2,558,164007,161354
2026-04-19T00:03:13.587,2,559,163901,161334
2026-04-19T00:03:13.597,2,560,163901,161334
2026-04-19T00:03:13.607,2,561,163901,161334
2026-04-19T00:03:13.616,2,562,163901,161334
2026-04-19T00:03:13.627,2,563,163931,161346
2026-04-19T00:03:13.636,2,564,163931,161346
2026-04-19T00:03:13.647,2,565,163931,161346
2026-04-19T00:03:13.657,2,566,163931,161346
2026-04-19T00:03:13.667,2,567,163608,161262
2026-04-19T00:03:13.677,2,568,163608,161262
2026-04-19T00:03:13.687,2,569,163608,161262
2026-04-19T00:03:13.697,2,570,163608,161262
2026-04-19T00:03:13.706,2,571,163411,161190
2026-04-19T00:03:13.716,2,572,163411,161190
2026-04-19T00:03:13.726,2,573,163411,161190
2026-04-19T00:03:13.737,2,574,163411,161190
2026-04-19T00:03:13.747,2,575,163724,161316
2026-04-19T00:03:13.757,2,576,163724,161316
2026-04-19T00:03:13.767,2,577,163724,161316
2026-04-19T00:03:13.777,2,578,163724,161316
2026-04-19T00:03:13.786,2,579,163693,161317
2026-04-19T00:03:13.796,2,580,163693,161317
2026-04-19T00:03:13.807,2,581,163693,161317
2026-04-19T00:03:13.817,2,582,163693,161317
2026-04-19T00:03:13.827,2,583,163646,161269
2026-04-19T00:03:13.837,2,584,163646,161269
2026-04-19T00:03:13.847,2,585,163646,161269
2026-04-19T00:03:13.857,2,586,163646,161269
2026-04-19T00:03:13.866,2,587,163669,161249
2026-04-19T00:03:13.876,2,588,163669,161249
2026-04-19T00:03:13.887,2,589,163669,161249
2026-04-19T00:03:13.897,2,590,163669,161249
2026-04-19T00:03:13.907,2,591,163609,161220
2026-04-19T00:03:13.917,2,592,163609,161220
2026-04-19T00:03:13.926,2,593,163609,161220
2026-04-19T00:03:13.936,2,594,163609,161220
2026-04-19T00:03:13.946,2,595,163614,161181
2026-04-19T00:03:13.956,2,596,163614,161181
2026-04-19T00:03:13.967,2,597,163614,161181
2026-04-19T00:03:13.977,2,598,163614,161181
2026-04-19T00:03:13.986,2,599,163738,161169
2026-04-19T00:03:13.996,2,600,163738,161169
2026-04-19T00:03:14.007,2,601,163738,161169
2026-04-19T00:03:14.016,2,602,163738,161169
2026-04-19T00:03:14.027,2,603,163800,161133
2026-04-19T00:03:14.036,2,604,163800,161133
2026-04-19T00:03:14.047,2,605,163800,161133
2026-04-19T00:03:14.057,2,606,163800,161133
2026-04-19T00:03:14.066,2,607,163879,161105
2026-04-19T00:03:14.076,2,608,163879,161105
2026-04-19T00:03:14.087,2,609,163879,161105
2026-04-19T00:03:14.096,2,610,163879,161105
2026-04-19T00:03:14.106,2,611,164205,161147
2026-04-19T00:03:14.117,2,612,164205,161147
2026-04-19T00:03:14.126,2,613,164205,161147
2026-04-19T00:03:14.136,2,614,164205,161147
2026-04-19T00:03:14.146,2,615,164438,161164
2026-04-19T00:03:14.156,2,616,164438,161164
2026-04-19T00:03:14.166,2,617,164438,161164
2026-04-19T00:03:14.176,2,618,164438,161164
2026-04-19T00:03:14.186,2,619,164319,161081
2026-04-19T00:03:14.196,2,620,164319,161081
2026-04-19T00:03:14.206,2,621,164319,161081
2026-04-19T00:03:14.216,2,622,164319,161081
2026-04-19T00:03:14.226,2,623,164439,161108
2026-04-19T00:03:14.236,2,624,164439,161108
2026-04-19T00:03:14.246,2,625,164439,161108
2026-04-19T00:03:14.256,2,626,164439,161108
2026-04-19T00:03:14.266,2,627,164614,161261
2026-04-19T00:03:14.276,2,628,164614,161261
2026-04-19T00:03:14.286,2,629,164614,161261
2026-04-19T00:03:14.296,2,630,164614,161261
2026-04-19T00:03:14.306,2,631,164290,161266
2026-04-19T00:03:14.316,2,632,164290,161266
2026-04-19T00:03:14.326,2,633,164290,161266
2026-04-19T00:03:14.336,2,634,164290,161266
2026-04-19T00:03:14.346,2,635,164062,161254
2026-04-19T00:03:14.356,2,636,164062,161254
2026-04-19T00:03:14.366,2,637,164062,161254
2026-04-19T00:03:14.376,2,638,164062,161254
2026-04-19T00:03:14.386,2,639,163871,161246
2026-04-19T00:03:14.396,2,640,163871,161246
2026-04-19T00:03:14.406,2,641,163871,161246
2026-04-19T00:03:14.416,2,642,163871,161246
2026-04-19T00:03:14.426,2,643,164073,161380
2026-04-19T00:03:14.436,2,644,164073,161380
2026-04-19T00:03:14.446,2,645,164073,161380
2026-04-19T00:03:14.456,2,646,164073,161380
2026-04-19T00:03:14.466,2,647,164140,161439
2026-04-19T00:03:14.476,2,648,164140,161439
2026-04-19T00:03:14.486,2,649,164140,161439
2026-04-19T00:03:14.496,2,650,164140,161439
2026-04-19T00:03:14.506,2,651,164267,161503
2026-04-19T00:03:14.516,2,652,164267,161503
2026-04-19T00:03:14.526,2,653,164267,161503
2026-04-19T00:03:14.536,2,654,164267,161503
2026-04-19T00:03:14.545,2,655,164315,161531
2026-04-19T00:03:14.556,2,656,164315,161531
2026-04-19T00:03:14.566,2,657,164315,161531
2026-04-19T00:03:14.576,2,658,164315,161531
2026-04-19T00:03:14.585,2,659,164464,161540
2026-04-19T00:03:14.596,2,660,164464,161540
2026-04-19T00:03:14.606,2,661,164464,161540
2026-04-19T00:03:14.616,2,662,164464,161540
2026-04-19T00:03:14.626,2,663,164590,161531
2026-04-19T00:03:14.636,2,664,164590,161531
2026-04-19T00:03:14.646,2,665,164590,161531
2026-04-19T00:03:14.656,2,666,164590,161531
2026-04-19T00:03:14.666,2,667,164754,161544
2026-04-19T00:03:14.676,2,668,164754,161544
2026-04-19T00:03:14.685,2,669,164754,161544
2026-04-19T00:03:14.695,2,670,164754,161544
2026-04-19T00:03:14.705,2,671,164960,161558
2026-04-19T00:03:14.715,2,672,164960,161558
2026-04-19T00:03:14.725,2,673,164960,161558
2026-04-19T00:03:14.735,2,674,164960,161558
2026-04-19T00:03:14.746,2,675,165109,161567
2026-04-19T00:03:14.755,2,676,165109,161567
2026-04-19T00:03:14.765,2,677,165109,161567
2026-04-19T00:03:14.775,2,678,165109,161567
2026-04-19T00:03:14.785,2,679,165186,161571
2026-04-19T00:03:14.795,2,680,165186,161571
2026-04-19T00:03:14.806,2,681,165186,161571
2026-04-19T00:03:14.815,2,682,165186,161571
2026-04-19T00:03:14.825,2,683,165361,161572
2026-04-19T00:03:14.835,2,684,165361,161572
2026-04-19T00:03:14.845,2,685,165361,161572
2026-04-19T00:03:14.855,2,686,165361,161572
2026-04-19T00:03:14.865,2,687,165515,161589
2026-04-19T00:03:14.876,2,688,165515,161589
2026-04-19T00:03:14.885,2,689,165515,161589
2026-04-19T00:03:14.895,2,690,165515,161589
2026-04-19T00:03:14.905,2,691,165565,161591
2026-04-19T00:03:14.915,2,692,165565,161591
2026-04-19T00:03:14.925,2,693,165565,161591
2026-04-19T00:03:14.935,2,694,165565,161591
2026-04-19T00:03:14.945,2,695,165768,161619
2026-04-19T00:03:14.955,2,696,165768,161619
2026-04-19T00:03:14.965,2,697,165768,161619
2026-04-19T00:03:14.975,2,698,165768,161619
2026-04-19T00:03:14.985,2,699,165937,161659
2026-04-19T00:03:14.995,2,700,165937,161659
2026-04-19T00:03:15.005,2,701,165937,161659
2026-04-19T00:03:15.015,2,702,165937,161659
2026-04-19T00:03:15.025,2,703,165784,161671
2026-04-19T00:03:15.035,2,704,165784,161671
2026-04-19T00:03:15.045,2,705,165784,161671
2026-04-19T00:03:15.055,2,706,165784,161671
2026-04-19T00:03:15.065,2,707,165682,161655
2026-04-19T00:03:15.075,2,708,165682,161655
2026-04-19T00:03:15.085,2,709,165682,161655
2026-04-19T00:03:15.095,2,710,165682,161655
2026-04-19T00:03:15.104,2,711,165543,161618
2026-04-19T00:03:15.115,2,712,165543,161618
2026-04-19T00:03:15.124,2,713,165543,161618
2026-04-19T00:03:15.135,2,714,165543,161618
2026-04-19T00:03:15.144,2,715,165219,161545
2026-04-19T00:03:15.155,2,716,165219,161545
2026-04-19T00:03:15.164,2,717,165219,161545
2026-04-19T00:03:15.175,2,718,165219,161545
2026-04-19T00:03:15.185,2,719,165050,161479
2026-04-19T00:03:15.195,2,720,165050,161479
2026-04-19T00:03:15.204,2,721,165050,161479
2026-04-19T00:03:15.214,2,722,165050,161479
2026-04-19T00:03:15.224,2,723,165070,161388
2026-04-19T00:03:15.235,2,724,165070,161388
2026-04-19T00:03:15.244,2,725,165070,161388
2026-04-19T00:03:15.255,2,726,165070,161388
2026-04-19T00:03:15.264,2,727,164619,161240
2026-04-19T00:03:15.275,2,728,164619,161240
2026-04-19T00:03:15.284,2,729,164619,161240
2026-04-19T00:03:15.295,2,730,164619,161240
2026-04-19T00:03:15.305,2,731,164441,161121
2026-04-19T00:03:15.315,2,732,164441,161121
2026-04-19T00:03:15.325,2,733,164441,161121
2026-04-19T00:03:15.335,2,734,164441,161121
2026-04-19T00:03:15.345,2,735,164529,161110
2026-04-19T00:03:15.355,2,736,164529,161110
2026-04-19T00:03:15.365,2,737,164529,161110
2026-04-19T00:03:15.375,2,738,164529,161110
2026-04-19T00:03:15.384,2,739,164334,161042
2026-04-19T00:03:15.394,2,740,164334,161042
2026-04-19T00:03:15.404,2,741,164334,161042
2026-04-19T00:03:15.414,2,742,164334,161042
2026-04-19T00:03:15.424,2,743,164177,160988
2026-04-19T00:03:15.435,2,744,164177,160988
2026-04-19T00:03:15.444,2,745,164177,160988
2026-04-19T00:03:15.454,2,746,164177,160988
2026-04-19T00:03:15.464,2,747,164253,161078
2026-04-19T00:03:15.474,2,748,164253,161078
2026-04-19T00:03:15.484,2,749,164253,161078
2026-04-19T00:03:15.494,2,750,164253,161078
2026-04-19T00:03:15.504,2,751,164129,161106
2026-04-19T00:03:15.514,2,752,164129,161106
2026-04-19T00:03:15.524,2,753,164129,161106
2026-04-19T00:03:15.535,2,754,164129,161106
2026-04-19T00:03:15.545,2,755,164132,161115
2026-04-19T00:03:15.555,2,756,164132,161115
2026-04-19T00:03:15.564,2,757,164132,161115
2026-04-19T00:03:15.574,2,758,164132,161115
2026-04-19T00:03:15.585,2,759,164405,161220
2026-04-19T00:03:15.594,2,760,164405,161220
2026-04-19T00:03:15.604,2,761,164405,161220
2026-04-19T00:03:15.614,2,762,164405,161220
2026-04-19T00:03:15.624,2,763,164589,161345
2026-04-19T00:03:15.635,2,764,164589,161345
2026-04-19T00:03:15.644,2,765,164589,161345
2026-04-19T00:03:15.655,2,766,164589,161345
2026-04-19T00:03:15.664,2,767,164600,161393
2026-04-19T00:03:15.674,2,768,164600,161393
2026-04-19T00:03:15.684,2,769,164600,161393
2026-04-19T00:03:15.695,2,770,164600,161393
2026-04-19T00:03:15.705,2,771,164621,161448
2026-04-19T00:03:15.714,2,772,164621,161448
2026-04-19T00:03:15.724,2,773,164621,161448
2026-04-19T00:03:15.734,2,774,164621,161448
2026-04-19T00:03:15.745,2,775,164282,161400
2026-04-19T00:03:15.754,2,776,164282,161400
2026-04-19T00:03:15.765,2,777,164282,161400
2026-04-19T00:03:15.774,2,778,164282,161400
2026-04-19T00:03:15.785,2,779,164070,161362
2026-04-19T00:03:15.794,2,780,164070,161362
2026-04-19T00:03:15.804,2,781,164070,161362
2026-04-19T00:03:15.814,2,782,164070,161362
2026-04-19T00:03:15.824,2,783,163878,161310
2026-04-19T00:03:15.834,2,784,163878,161310
2026-04-19T00:03:15.844,2,785,163878,161310
2026-04-19T00:03:15.854,2,786,163878,161310
2026-04-19T00:03:15.864,2,787,163591,161252
2026-04-19T00:03:15.874,2,788,163591,161252
2026-04-19T00:03:15.884,2,789,163591,161252
2026-04-19T00:03:15.894,2,790,163591,161252
2026-04-19T00:03:15.904,2,791,163521,161254
2026-04-19T00:03:15.914,2,792,163521,161254
2026-04-19T00:03:15.924,2,793,163521,161254
2026-04-19T00:03:15.934,2,794,163521,161254
2026-04-19T00:03:15.944,2,795,163723,161319
2026-04-19T00:03:15.954,2,796,163723,161319
2026-04-19T00:03:15.963,2,797,163723,161319
2026-04-19T00:03:15.974,2,798,163723,161319
2026-04-19T00:03:15.984,2,799,163571,161277
2026-04-19T00:03:15.994,2,800,163571,161277
2026-04-19T00:03:16.004,2,801,163571,161277
2026-04-19T00:03:16.014,2,802,163571,161277
2026-04-19T00:03:16.024,2,803,163534,161244
2026-04-19T00:03:16.034,2,804,163534,161244
2026-04-19T00:03:16.044,2,805,163534,161244
2026-04-19T00:03:16.054,2,806,163534,161244
2026-04-19T00:03:16.064,2,807,163585,161225
2026-04-19T00:03:16.074,2,808,163585,161225
2026-04-19T00:03:16.084,2,809,163585,161225
2026-04-19T00:03:16.094,2,810,163585,161225
2026-04-19T00:03:16.104,2,811,163629,161221
2026-04-19T00:03:16.114,2,812,163629,161221
2026-04-19T00:03:16.124,2,813,163629,161221
2026-04-19T00:03:16.133,2,814,163629,161221
2026-04-19T00:03:16.144,2,815,163620,161211
2026-04-19T00:03:16.154,2,816,163620,161211
2026-04-19T00:03:16.164,2,817,163620,161211
2026-04-19T00:03:16.174,2,818,163620,161211
2026-04-19T00:03:16.184,2,819,163497,161165
2026-04-19T00:03:16.194,2,820,163497,161165
2026-04-19T00:03:16.204,2,821,163497,161165
2026-04-19T00:03:16.213,2,822,163497,161165
2026-04-19T00:03:16.223,2,823,163243,161108
2026-04-19T00:03:16.233,2,824,163243,161108
2026-04-19T00:03:16.244,2,825,163243,161108
2026-04-19T00:03:16.254,2,826,163243,161108
2026-04-19T00:03:16.264,2,827,163301,161109
2026-04-19T00:03:16.274,2,828,163301,161109
2026-04-19T00:03:16.284,2,829,163301,161109
2026-04-19T00:03:16.293,2,830,163301,161109
2026-04-19T00:03:16.304,2,831,163552,161154
2026-04-19T00:03:16.314,2,832,163552,161154
2026-04-19T00:03:16.323,2,833,163552,161154
2026-04-19T00:03:16.333,2,834,163552,161154
2026-04-19T00:03:16.343,2,835,163843,161268
2026-04-19T00:03:16.354,2,836,163843,161268
2026-04-19T00:03:16.364,2,837,163843,161268
2026-04-19T00:03:16.373,2,838,163843,161268
2026-04-19T00:03:16.383,2,839,163902,161271
2026-04-19T00:03:16.393,2,840,163902,161271
2026-04-19T00:03:16.403,2,841,163902,161271
2026-04-19T00:03:16.413,2,842,163902,161271
2026-04-19T00:03:16.423,2,843,163909,161289
2026-04-19T00:03:16.433,2,844,163909,161289
2026-04-19T00:03:16.443,2,845,163909,161289
2026-04-19T00:03:16.453,2,846,163909,161289
2026-04-19T00:03:16.463,2,847,163635,161237
2026-04-19T00:03:16.473,2,848,163635,161237
2026-04-19T00:03:16.483,2,849,163635,161237
2026-04-19T00:03:16.493,2,850,163635,161237
2026-04-19T00:03:16.503,2,851,163453,161208
2026-04-19T00:03:16.513,2,852,163453,161208
2026-04-19T00:03:16.523,2,853,163453,161208
2026-04-19T00:03:16.533,2,854,163453,161208
2026-04-19T00:03:16.543,2,855,163566,161222
2026-04-19T00:03:16.553,2,856,163566,161222
2026-04-19T00:03:16.564,2,857,163566,161222
2026-04-19T00:03:16.573,2,858,163566,161222
2026-04-19T00:03:16.583,2,859,163462,161182
2026-04-19T00:03:16.593,2,860,163462,161182
2026-04-19T00:03:16.603,2,861,163462,161182
2026-04-19T00:03:16.613,2,862,163462,161182
2026-04-19T00:03:16.623,2,863,163612,161201
2026-04-19T00:03:16.633,2,864,163612,161201
2026-04-19T00:03:16.643,2,865,163612,161201
2026-04-19T00:03:16.653,2,866,163612,161201
2026-04-19T00:03:16.663,2,867,163920,161258
2026-04-19T00:03:16.673,2,868,163920,161258
2026-04-19T00:03:16.683,2,869,163920,161258
2026-04-19T00:03:16.693,2,870,163920,161258
2026-04-19T00:03:16.704,2,871,164162,161297
2026-04-19T00:03:16.713,2,872,164162,161297
2026-04-19T00:03:16.723,2,873,164162,161297
2026-04-19T00:03:16.733,2,874,164162,161297
2026-04-19T00:03:16.743,2,875,164219,161294
2026-04-19T00:03:16.753,2,876,164219,161294
2026-04-19T00:03:16.763,2,877,164219,161294
2026-04-19T00:03:16.773,2,878,164219,161294
2026-04-19T00:03:16.783,2,879,164277,161256
2026-04-19T00:03:16.793,2,880,164277,161256
2026-04-19T00:03:16.803,2,881,164277,161256
2026-04-19T00:03:16.813,2,882,164277,161256
2026-04-19T00:03:16.823,2,883,164512,161337
2026-04-19T00:03:16.833,2,884,164512,161337
2026-04-19T00:03:16.843,2,885,164512,161337
2026-04-19T00:03:16.853,2,886,164512,161337
2026-04-19T00:03:16.863,2,887,164746,161431
2026-04-19T00:03:16.873,2,888,164746,161431
2026-04-19T00:03:16.883,2,889,164746,161431
2026-04-19T00:03:16.893,2,890,164746,161431
2026-04-19T00:03:16.903,2,891,164853,161465
2026-04-19T00:03:16.913,2,892,164853,161465
2026-04-19T00:03:16.923,2,893,164853,161465
2026-04-19T00:03:16.933,2,894,164853,161465
2026-04-19T00:03:16.944,2,895,165004,161524
2026-04-19T00:03:16.953,2,896,165004,161524
2026-04-19T00:03:16.963,2,897,165004,161524
2026-04-19T00:03:16.973,2,898,165004,161524
2026-04-19T00:03:16.983,2,899,165284,161613
2026-04-19T00:03:16.993,2,900,165284,161613
2026-04-19T00:03:17.003,2,901,165284,161613
2026-04-19T00:03:17.013,2,902,165284,161613
2026-04-19T00:03:17.023,2,903,165477,161620
2026-04-19T00:03:17.033,2,904,165477,161620
2026-04-19T00:03:17.042,2,905,165477,161620
2026-04-19T00:03:17.053,2,906,165477,161620
2026-04-19T00:03:17.063,2,907,165741,161650
2026-04-19T00:03:17.073,2,908,165741,161650
2026-04-19T00:03:17.083,2,909,165741,161650
2026-04-19T00:03:17.093,2,910,165741,161650
2026-04-19T00:03:17.103,2,911,165988,161680
2026-04-19T00:03:17.113,2,912,165988,161680
2026-04-19T00:03:17.123,2,913,165988,161680
2026-04-19T00:03:17.133,2,914,165988,161680
2026-04-19T00:03:17.142,2,915,166051,161647
2026-04-19T00:03:17.152,2,916,166051,161647
2026-04-19T00:03:17.162,2,917,166051,161647
2026-04-19T00:03:17.172,2,918,166051,161647
2026-04-19T00:03:17.182,2,919,166173,161651
2026-04-19T00:03:17.192,2,920,166173,161651
2026-04-19T00:03:17.202,2,921,166173,161651
2026-04-19T00:03:17.212,2,922,166173,161651
2026-04-19T00:03:17.223,2,923,166022,161656
2026-04-19T00:03:17.232,2,924,166022,161656
2026-04-19T00:03:17.243,2,925,166022,161656
2026-04-19T00:03:17.253,2,926,166022,161656
2026-04-19T00:03:17.263,2,927,165899,161648
2026-04-19T00:03:17.273,2,928,165899,161648
2026-04-19T00:03:17.282,2,929,165899,161648
2026-04-19T00:03:17.293,2,930,165899,161648
2026-04-19T00:03:17.303,2,931,165898,161636
2026-04-19T00:03:17.313,2,932,165898,161636
2026-04-19T00:03:17.322,2,933,165898,161636
2026-04-19T00:03:17.332,2,934,165898,161636
2026-04-19T00:03:17.342,2,935,165581,161602
2026-04-19T00:03:17.353,2,936,165581,161602
2026-04-19T00:03:17.362,2,937,165581,161602
2026-04-19T00:03:17.372,2,938,165581,161602
2026-04-19T00:03:17.382,2,939,165248,161499
2026-04-19T00:03:17.392,2,940,165248,161499
2026-04-19T00:03:17.403,2,941,165248,161499
2026-04-19T00:03:17.412,2,942,165248,161499
2026-04-19T00:03:17.422,2,943,165251,161461
2026-04-19T00:03:17.432,2,944,165251,161461
2026-04-19T00:03:17.442,2,945,165251,161461
2026-04-19T00:03:17.452,2,946,165251,161461
2026-04-19T00:03:17.462,2,947,165173,161406
2026-04-19T00:03:17.472,2,948,165173,161406
2026-04-19T00:03:17.482,2,949,165173,161406
2026-04-19T00:03:17.492,2,950,165173,161406
2026-04-19T00:03:17.502,2,951,165126,161334
2026-04-19T00:03:17.512,2,952,165126,161334
2026-04-19T00:03:17.522,2,953,165126,161334
2026-04-19T00:03:17.532,2,954,165126,161334
2026-04-19T00:03:17.542,2,955,165100,161264
2026-04-19T00:03:17.552,2,956,165100,161264
2026-04-19T00:03:17.562,2,957,165100,161264
2026-04-19T00:03:17.572,2,958,165100,161264
2026-04-19T00:03:17.582,2,959,165176,161277
2026-04-19T00:03:17.592,2,960,165176,161277
2026-04-19T00:03:17.602,2,961,165176,161277
2026-04-19T00:03:17.612,2,962,165176,161277
2026-04-19T00:03:17.622,2,963,165119,161256
2026-04-19T00:03:17.632,2,964,165119,161256
2026-04-19T00:03:17.641,2,965,165119,161256
2026-04-19T00:03:17.652,2,966,165119,161256
2026-04-19T00:03:17.662,2,967,165028,161235
2026-04-19T00:03:17.672,2,968,165028,161235
2026-04-19T00:03:17.682,2,969,165028,161235
2026-04-19T00:03:17.692,2,970,165028,161235
2026-04-19T00:03:17.702,2,971,165039,161221
2026-04-19T00:03:17.712,2,972,165039,161221
2026-04-19T00:03:17.722,2,973,165039,161221
2026-04-19T00:03:17.731,2,974,165039,161221
2026-04-19T00:03:17.741,2,975,165191,161189
2026-04-19T00:03:17.751,2,976,165191,161189
2026-04-19T00:03:17.762,2,977,165191,161189
2026-04-19T00:03:17.772,2,978,165191,161189
2026-04-19T00:03:17.782,2,979,165458,161224
2026-04-19T00:03:17.792,2,980,165458,161224
2026-04-19T00:03:17.802,2,981,165458,161224
2026-04-19T00:03:17.812,2,982,165458,161224
2026-04-19T00:03:17.822,2,983,165404,161260
2026-04-19T00:03:17.831,2,984,165404,161260
2026-04-19T00:03:17.842,2,985,165404,161260
2026-04-19T00:03:17.852,2,986,165404,161260
2026-04-19T00:03:17.862,2,987,165419,161310
2026-04-19T00:03:17.872,2,988,165419,161310
2026-04-19T00:03:17.882,2,989,165419,161310
2026-04-19T00:03:17.892,2,990,165419,161310
2026-04-19T00:03:17.901,2,991,165426,161374
2026-04-19T00:03:17.911,2,992,165426,161374
2026-04-19T00:03:17.921,2,993,165426,161374
2026-04-19T00:03:17.931,2,994,165426,161374
2026-04-19T00:03:17.941,2,995,165150,161392
2026-04-19T00:03:17.951,2,996,165150,161392
2026-04-19T00:03:17.961,2,997,165150,161392
2026-04-19T00:03:17.971,2,998,165150,161392
2026-04-19T00:03:17.981,2,999,164878,161369
2026-04-19T00:03:17.991,2,1000,164878,161369
2026-04-19T00:03:18.001,2,1001,164878,161369
2026-04-19T00:03:21.427,3,0,135390,141935
2026-04-19T00:03:21.437,3,1,135390,141935
2026-04-19T00:03:21.447,3,2,135390,141935
2026-04-19T00:03:21.457,3,3,137338,143614
2026-04-19T00:03:21.467,3,4,137338,143614
2026-04-19T00:03:21.477,3,5,137338,143614
2026-04-19T00:03:21.487,3,6,137338,143614
2026-04-19T00:03:21.498,3,7,138380,144391
2026-04-19T00:03:21.507,3,8,138380,144391
2026-04-19T00:03:21.517,3,9,138380,144391
2026-04-19T00:03:21.527,3,10,138380,144391
2026-04-19T00:03:21.537,3,11,140416,146021
2026-04-19T00:03:21.547,3,12,140416,146021
2026-04-19T00:03:21.557,3,13,140416,146021
2026-04-19T00:03:21.567,3,14,140416,146021
2026-04-19T00:03:21.577,3,15,141762,147120
2026-04-19T00:03:21.587,3,16,141762,147120
2026-04-19T00:03:21.597,3,17,141762,147120
2026-04-19T00:03:21.607,3,18,141762,147120
2026-04-19T00:03:21.618,3,19,143418,148401
2026-04-19T00:03:21.627,3,20,143418,148401
2026-04-19T00:03:21.637,3,21,143418,148401
2026-04-19T00:03:21.647,3,22,143418,148401
2026-04-19T00:03:21.657,3,23,145079,149688
2026-04-19T00:03:21.667,3,24,145079,149688
2026-04-19T00:03:21.677,3,25,145079,149688
2026-04-19T00:03:21.687,3,26,145079,149688
2026-04-19T00:03:21.697,3,27,146295,150612
2026-04-19T00:03:21.707,3,28,146295,150612
2026-04-19T00:03:21.717,3,29,146295,150612
2026-04-19T00:03:21.727,3,30,146295,150612
2026-04-19T00:03:21.737,3,31,147567,151573
2026-04-19T00:03:21.747,3,32,147567,151573
2026-04-19T00:03:21.757,3,33,147567,151573
2026-04-19T00:03:21.767,3,34,147567,151573
2026-04-19T00:03:21.777,3,35,148451,152714
2026-04-19T00:03:21.787,3,36,148451,152714
2026-04-19T00:03:21.797,3,37,148451,152714
2026-04-19T00:03:21.807,3,38,148451,152714
2026-04-19T00:03:21.817,3,39,149639,153567
2026-04-19T00:03:21.827,3,40,149639,153567
2026-04-19T00:03:21.837,3,41,149639,153567
2026-04-19T00:03:21.847,3,42,149639,153567
2026-04-19T00:03:21.857,3,43,151160,154646
2026-04-19T00:03:21.867,3,44,151160,154646
2026-04-19T00:03:21.877,3,45,151160,154646
2026-04-19T00:03:21.887,3,46,151160,154646
2026-04-19T00:03:21.897,3,47,152756,155754
2026-04-19T00:03:21.907,3,48,152756,155754
2026-04-19T00:03:21.917,3,49,152756,155754
2026-04-19T00:03:21.927,3,50,152756,155754
2026-04-19T00:03:21.936,3,51,154257,156766
2026-04-19T00:03:21.947,3,52,154257,156766
2026-04-19T00:03:21.957,3,53,154257,156766
2026-04-19T00:03:21.967,3,54,154257,156766
2026-04-19T00:03:21.977,3,55,155309,157450
2026-04-19T00:03:21.987,3,56,155309,157450
2026-04-19T00:03:21.997,3,57,155309,157450
2026-04-19T00:03:22.007,3,58,155309,157450
2026-04-19T00:03:22.017,3,59,156505,158201
2026-04-19T00:03:22.027,3,60,156505,158201
2026-04-19T00:03:22.037,3,61,156505,158201
2026-04-19T00:03:22.047,3,62,156505,158201
2026-04-19T00:03:22.056,3,63,157530,158801
2026-04-19T00:03:22.067,3,64,157530,158801
2026-04-19T00:03:22.076,3,65,157530,158801
2026-04-19T00:03:22.087,3,66,157530,158801
2026-04-19T00:03:22.096,3,67,158775,159496
2026-04-19T00:03:22.106,3,68,158775,159496
2026-04-19T00:03:22.116,3,69,158775,159496
2026-04-19T00:03:22.126,3,70,158775,159496
2026-04-19T00:03:22.136,3,71,159965,160123
2026-04-19T00:03:22.146,3,72,159965,160123
2026-04-19T00:03:22.156,3,73,159965,160123
2026-04-19T00:03:22.166,3,74,159965,160123
2026-04-19T00:03:22.177,3,75,161007,160583
2026-04-19T00:03:22.186,3,76,161007,160583
2026-04-19T00:03:22.196,3,77,161007,160583
2026-04-19T00:03:22.206,3,78,161007,160583
2026-04-19T00:03:22.217,3,79,161753,160869
2026-04-19T00:03:22.227,3,80,161753,160869
2026-04-19T00:03:22.236,3,81,161753,160869
2026-04-19T00:03:22.246,3,82,161753,160869
2026-04-19T00:03:22.257,3,83,162469,161152
2026-04-19T00:03:22.266,3,84,162469,161152
2026-04-19T00:03:22.276,3,85,162469,161152
2026-04-19T00:03:22.286,3,86,162469,161152
2026-04-19T00:03:22.296,3,87,162654,161233
2026-04-19T00:03:22.306,3,88,162654,161233
2026-04-19T00:03:22.316,3,89,162654,161233
2026-04-19T00:03:22.326,3,90,162654,161233
2026-04-19T00:03:22.336,3,91,162934,161334
2026-04-19T00:03:22.346,3,92,162934,161334
2026-04-19T00:03:22.356,3,93,162934,161334
2026-04-19T00:03:22.366,3,94,162934,161334
2026-04-19T00:03:22.376,3,95,163146,161429
2026-04-19T00:03:22.386,3,96,163146,161429
2026-04-19T00:03:22.396,3,97,163146,161429
2026-04-19T00:03:22.406,3,98,163146,161429
2026-04-19T00:03:22.416,3,99,163161,161477
2026-04-19T00:03:22.426,3,100,163161,161477
2026-04-19T00:03:22.436,3,101,163161,161477
2026-04-19T00:03:22.446,3,102,163161,161477
2026-04-19T00:03:22.456,3,103,163523,161595
2026-04-19T00:03:22.466,3,104,163523,161595
2026-04-19T00:03:22.476,3,105,163523,161595
2026-04-19T00:03:22.486,3,106,163523,161595
2026-04-19T00:03:22.496,3,107,163367,161756
2026-04-19T00:03:22.506,3,108,163367,161756
2026-04-19T00:03:22.515,3,109,163367,161756
2026-04-19T00:03:22.526,3,110,163367,161756
2026-04-19T00:03:22.535,3,111,163763,161922
2026-04-19T00:03:22.546,3,112,163763,161922
2026-04-19T00:03:22.556,3,113,163763,161922
2026-04-19T00:03:22.566,3,114,163763,161922
2026-04-19T00:03:22.576,3,115,163997,162019
2026-04-19T00:03:22.586,3,116,163997,162019
2026-04-19T00:03:22.596,3,117,163997,162019
2026-04-19T00:03:22.606,3,118,163997,162019
2026-04-19T00:03:22.616,3,119,164165,162053
2026-04-19T00:03:22.626,3,120,164165,162053
2026-04-19T00:03:22.636,3,121,164165,162053
2026-04-19T00:03:22.646,3,122,164165,162053
2026-04-19T00:03:22.656,3,123,164256,162085
2026-04-19T00:03:22.666,3,124,164256,162085
2026-04-19T00:03:22.676,3,125,164256,162085
2026-04-19T00:03:22.686,3,126,164256,162085
2026-04-19T00:03:22.696,3,127,164230,162085
2026-04-19T00:03:22.706,3,128,164230,162085
2026-04-19T00:03:22.716,3,129,164230,162085
2026-04-19T00:03:22.725,3,130,164230,162085
2026-04-19T00:03:22.736,3,131,164276,162104
2026-04-19T00:03:22.746,3,132,164276,162104
2026-04-19T00:03:22.756,3,133,164276,162104
2026-04-19T00:03:22.765,3,134,164276,162104
2026-04-19T00:03:22.775,3,135,164335,162142
2026-04-19T00:03:22.785,3,136,164335,162142
2026-04-19T00:03:22.796,3,137,164335,162142
2026-04-19T00:03:22.806,3,138,164335,162142
2026-04-19T00:03:22.816,3,139,164359,162104
2026-04-19T00:03:22.826,3,140,164359,162104
2026-04-19T00:03:22.835,3,141,164359,162104
2026-04-19T00:03:22.845,3,142,164359,162104
2026-04-19T00:03:22.856,3,143,164505,162092
2026-04-19T00:03:22.866,3,144,164505,162092
2026-04-19T00:03:22.875,3,145,164505,162092
2026-04-19T00:03:22.886,3,146,164505,162092
2026-04-19T00:03:22.896,3,147,164548,162059
2026-04-19T00:03:22.906,3,148,164548,162059
2026-04-19T00:03:22.915,3,149,164548,162059
2026-04-19T00:03:22.926,3,150,164548,162059
2026-04-19T00:03:22.935,3,151,164523,162048
2026-04-19T00:03:22.945,3,152,164523,162048
2026-04-19T00:03:22.956,3,153,164523,162048
2026-04-19T00:03:22.966,3,154,164523,162048
2026-04-19T00:03:22.976,3,155,164860,162096
2026-04-19T00:03:22.985,3,156,164860,162096
2026-04-19T00:03:22.996,3,157,164860,162096
2026-04-19T00:03:23.006,3,158,164860,162096
2026-04-19T00:03:23.016,3,159,165029,162106
2026-04-19T00:03:23.025,3,160,165029,162106
2026-04-19T00:03:23.036,3,161,165029,162106
2026-04-19T00:03:23.045,3,162,165029,162106
2026-04-19T00:03:23.056,3,163,165003,162078
2026-04-19T00:03:23.065,3,164,165003,162078
2026-04-19T00:03:23.075,3,165,165003,162078
2026-04-19T00:03:23.085,3,166,165003,162078
2026-04-19T00:03:23.095,3,167,165075,162053
2026-04-19T00:03:23.105,3,168,165075,162053
2026-04-19T00:03:23.115,3,169,165075,162053
2026-04-19T00:03:23.125,3,170,165075,162053
2026-04-19T00:03:23.135,3,171,164659,161948
2026-04-19T00:03:23.145,3,172,164659,161948
2026-04-19T00:03:23.155,3,173,164659,161948
2026-04-19T00:03:23.165,3,174,164659,161948
2026-04-19T00:03:23.175,3,175,164860,162088
2026-04-19T00:03:23.185,3,176,164860,162088
2026-04-19T00:03:23.195,3,177,164860,162088
2026-04-19T00:03:23.205,3,178,164860,162088
2026-04-19T00:03:23.215,3,179,165129,162256
2026-04-19T00:03:23.225,3,180,165129,162256
2026-04-19T00:03:23.235,3,181,165129,162256
2026-04-19T00:03:23.245,3,182,165129,162256
2026-04-19T00:03:23.256,3,183,165230,162328
2026-04-19T00:03:23.265,3,184,165230,162328
2026-04-19T00:03:23.275,3,185,165230,162328
2026-04-19T00:03:23.285,3,186,165230,162328
2026-04-19T00:03:23.295,3,187,165116,162321
2026-04-19T00:03:23.305,3,188,165116,162321
2026-04-19T00:03:23.315,3,189,165116,162321
2026-04-19T00:03:23.325,3,190,165116,162321
2026-04-19T00:03:23.335,3,191,165264,162359
2026-04-19T00:03:23.345,3,192,165264,162359
2026-04-19T00:03:23.355,3,193,165264,162359
2026-04-19T00:03:23.364,3,194,165264,162359
2026-04-19T00:03:23.375,3,195,165527,162426
2026-04-19T00:03:23.384,3,196,165527,162426
2026-04-19T00:03:23.394,3,197,165527,162426
2026-04-19T00:03:23.404,3,198,165527,162426
2026-04-19T00:03:23.415,3,199,165498,162447
2026-04-19T00:03:23.424,3,200,165498,162447
2026-04-19T00:03:23.435,3,201,165498,162447
2026-04-19T00:03:23.444,3,202,165498,162447
2026-04-19T00:03:23.455,3,203,165232,162388
2026-04-19T00:03:23.464,3,204,165232,162388
2026-04-19T00:03:23.474,3,205,165232,162388
2026-04-19T00:03:23.484,3,206,165232,162388
2026-04-19T00:03:23.494,3,207,165174,162316
2026-04-19T00:03:23.504,3,208,165174,162316
2026-04-19T00:03:23.514,3,209,165174,162316
2026-04-19T00:03:23.524,3,210,165174,162316
2026-04-19T00:03:23.534,3,211,165111,162287
2026-04-19T00:03:23.544,3,212,165111,162287
2026-04-19T00:03:23.554,3,213,165111,162287
2026-04-19T00:03:23.565,3,214,165111,162287
2026-04-19T00:03:23.575,3,215,165212,162254
2026-04-19T00:03:23.584,3,216,165212,162254
2026-04-19T00:03:23.594,3,217,165212,162254
2026-04-19T00:03:23.604,3,218,165212,162254
2026-04-19T00:03:23.614,3,219,165510,162292
2026-04-19T00:03:23.624,3,220,165510,162292
2026-04-19T00:03:23.634,3,221,165510,162292
2026-04-19T00:03:23.644,3,222,165510,162292
2026-04-19T00:03:23.654,3,223,165631,162359
2026-04-19T00:03:23.664,3,224,165631,162359
2026-04-19T00:03:23.675,3,225,165631,162359
2026-04-19T00:03:23.684,3,226,165631,162359
2026-04-19T00:03:23.695,3,227,165599,162385
2026-04-19T00:03:23.704,3,228,165599,162385
2026-04-19T00:03:23.714,3,229,165599,162385
2026-04-19T00:03:23.724,3,230,165599,162385
2026-04-19T00:03:23.734,3,231,165766,162416
2026-04-19T00:03:23.744,3,232,165766,162416
2026-04-19T00:03:23.754,3,233,165766,162416
2026-04-19T00:03:23.765,3,234,165766,162416
2026-04-19T00:03:23.775,3,235,165644,162425
2026-04-19T00:03:23.784,3,236,165644,162425
2026-04-19T00:03:23.794,3,237,165644,162425
2026-04-19T00:03:23.804,3,238,165644,162425
2026-04-19T00:03:23.814,3,239,165571,162432
2026-04-19T00:03:23.824,3,240,165571,162432
2026-04-19T00:03:23.834,3,241,165571,162432
2026-04-19T00:03:23.844,3,242,165571,162432
2026-04-19T00:03:23.854,3,243,165601,162424
2026-04-19T00:03:23.864,3,244,165601,162424
2026-04-19T00:03:23.874,3,245,165601,162424
2026-04-19T00:03:23.884,3,246,165601,162424
2026-04-19T00:03:23.894,3,247,165453,162391
2026-04-19T00:03:23.904,3,248,165453,162391
2026-04-19T00:03:23.914,3,249,165453,162391
2026-04-19T00:03:23.924,3,250,165453,162391
2026-04-19T00:03:23.934,3,251,165432,162397
2026-04-19T00:03:23.944,3,252,165432,162397
2026-04-19T00:03:23.954,3,253,165432,162397
2026-04-19T00:03:23.964,3,254,165432,162397
2026-04-19T00:03:23.974,3,255,165673,162473
2026-04-19T00:03:23.984,3,256,165673,162473
2026-04-19T00:03:23.994,3,257,165673,162473
2026-04-19T00:03:24.004,3,258,165673,162473
2026-04-19T00:03:24.014,3,259,165709,162528
2026-04-19T00:03:24.024,3,260,165709,162528
2026-04-19T00:03:24.034,3,261,165709,162528
2026-04-19T00:03:24.044,3,262,165709,162528
2026-04-19T00:03:24.054,3,263,165558,162577
2026-04-19T00:03:24.064,3,264,165558,162577
2026-04-19T00:03:24.074,3,265,165558,162577
2026-04-19T00:03:24.084,3,266,165558,162577
2026-04-19T00:03:24.094,3,267,165582,162575
2026-04-19T00:03:24.104,3,268,165582,162575
2026-04-19T00:03:24.114,3,269,165582,162575
2026-04-19T00:03:24.124,3,270,165582,162575
2026-04-19T00:03:24.134,3,271,166098,162522
2026-04-19T00:03:24.144,3,272,166098,162522
2026-04-19T00:03:24.153,3,273,166098,162522
2026-04-19T00:03:24.163,3,274,166098,162522
2026-04-19T00:03:24.174,3,275,166575,162489
2026-04-19T00:03:24.184,3,276,166575,162489
2026-04-19T00:03:24.194,3,277,166575,162489
2026-04-19T00:03:24.204,3,278,166575,162489
2026-04-19T00:03:24.214,3,279,166090,162295
2026-04-19T00:03:24.224,3,280,166090,162295
2026-04-19T00:03:24.233,3,281,166090,162295
2026-04-19T00:03:24.244,3,282,166090,162295
2026-04-19T00:03:24.254,3,283,165306,162045
2026-04-19T00:03:24.264,3,284,165306,162045
2026-04-19T00:03:24.274,3,285,165306,162045
2026-04-19T00:03:24.284,3,286,165306,162045
2026-04-19T00:03:24.293,3,287,164393,161788
2026-04-19T00:03:24.303,3,288,164393,161788
2026-04-19T00:03:24.314,3,289,164393,161788
2026-04-19T00:03:24.324,3,290,164393,161788
2026-04-19T00:03:24.333,3,291,163693,161534
2026-04-19T00:03:24.343,3,292,163693,161534
2026-04-19T00:03:24.353,3,293,163693,161534
2026-04-19T00:03:24.363,3,294,163693,161534
2026-04-19T00:03:24.373,3,295,163520,161445
2026-04-19T00:03:24.384,3,296,163520,161445
2026-04-19T00:03:24.393,3,297,163520,161445
2026-04-19T00:03:24.403,3,298,163520,161445
2026-04-19T00:03:24.413,3,299,162897,161221
2026-04-19T00:03:24.423,3,300,162897,161221
2026-04-19T00:03:24.433,3,301,162897,161221
2026-04-19T00:03:24.443,3,302,162897,161221
2026-04-19T00:03:24.453,3,303,162015,160917
2026-04-19T00:03:24.463,3,304,162015,160917
2026-04-19T00:03:24.473,3,305,162015,160917
2026-04-19T00:03:24.483,3,306,162015,160917
2026-04-19T00:03:24.493,3,307,161211,160651
2026-04-19T00:03:24.503,3,308,161211,160651
2026-04-19T00:03:24.513,3,309,161211,160651
2026-04-19T00:03:24.523,3,310,161211,160651
2026-04-19T00:03:24.533,3,311,159752,160014
2026-04-19T00:03:24.543,3,312,159752,160014
2026-04-19T00:03:24.553,3,313,159752,160014
2026-04-19T00:03:24.563,3,314,159752,160014
2026-04-19T00:03:24.573,3,315,157770,158992
2026-04-19T00:03:24.583,3,316,157770,158992
2026-04-19T00:03:24.593,3,317,157770,158992
2026-04-19T00:03:24.603,3,318,157770,158992
2026-04-19T00:03:24.613,3,319,156338,158209
2026-04-19T00:03:24.623,3,320,156338,158209
2026-04-19T00:03:24.633,3,321,156338,158209
2026-04-19T00:03:24.643,3,322,156338,158209
2026-04-19T00:03:24.653,3,323,155180,157560
2026-04-19T00:03:24.663,3,324,155180,157560
2026-04-19T00:03:24.673,3,325,155180,157560
2026-04-19T00:03:24.683,3,326,155180,157560
2026-04-19T00:03:24.693,3,327,154006,156870
2026-04-19T00:03:24.703,3,328,154006,156870
2026-04-19T00:03:24.713,3,329,154006,156870
2026-04-19T00:03:24.723,3,330,154006,156870
2026-04-19T00:03:24.733,3,331,153296,156457
2026-04-19T00:03:24.743,3,332,153296,156457
2026-04-19T00:03:24.753,3,333,153296,156457
2026-04-19T00:03:24.763,3,334,153296,156457
2026-04-19T00:03:24.773,3,335,152917,156218
2026-04-19T00:03:24.783,3,336,152917,156218
2026-04-19T00:03:24.793,3,337,152917,156218
2026-04-19T00:03:24.803,3,338,152917,156218
2026-04-19T00:03:24.813,3,339,152494,155970
2026-04-19T00:03:24.823,3,340,152494,155970
2026-04-19T00:03:24.833,3,341,152494,155970
2026-04-19T00:03:24.843,3,342,152494,155970
2026-04-19T00:03:24.853,3,343,151770,155528
2026-04-19T00:03:24.863,3,344,151770,155528
2026-04-19T00:03:24.873,3,345,151770,155528
2026-04-19T00:03:24.883,3,346,151770,155528
2026-04-19T00:03:24.893,3,347,150911,154970
2026-04-19T00:03:24.903,3,348,150911,154970
2026-04-19T00:03:24.913,3,349,150911,154970
2026-04-19T00:03:24.923,3,350,150911,154970
2026-04-19T00:03:24.933,3,351,150120,154440
2026-04-19T00:03:24.943,3,352,150120,154440
2026-04-19T00:03:24.953,3,353,150120,154440
2026-04-19T00:03:24.963,3,354,150120,154440
2026-04-19T00:03:24.973,3,355,149294,153876
2026-04-19T00:03:24.983,3,356,149294,153876
2026-04-19T00:03:24.993,3,357,149294,153876
2026-04-19T00:03:25.003,3,358,149294,153876
2026-04-19T00:03:25.013,3,359,149019,153669
2026-04-19T00:03:25.023,3,360,149019,153669
2026-04-19T00:03:25.033,3,361,149019,153669
2026-04-19T00:03:25.043,3,362,149019,153669
2026-04-19T00:03:25.053,3,363,148765,153478
2026-04-19T00:03:25.063,3,364,148765,153478
2026-04-19T00:03:25.073,3,365,148765,153478
2026-04-19T00:03:25.082,3,366,148765,153478
2026-04-19T00:03:25.093,3,367,147732,152267
2026-04-19T00:03:25.103,3,368,147732,152267
2026-04-19T00:03:25.113,3,369,147732,152267
2026-04-19T00:03:25.123,3,370,147732,152267
2026-04-19T00:03:25.133,3,371,146753,151486
2026-04-19T00:03:25.143,3,372,146753,151486
2026-04-19T00:03:25.153,3,373,146753,151486
2026-04-19T00:03:25.163,3,374,146753,151486
2026-04-19T00:03:25.173,3,375,145877,150804
2026-04-19T00:03:25.182,3,376,145877,150804
2026-04-19T00:03:25.192,3,377,145877,150804
2026-04-19T00:03:25.202,3,378,145877,150804
2026-04-19T00:03:25.213,3,379,145019,150122
2026-04-19T00:03:25.223,3,380,145019,150122
2026-04-19T00:03:25.233,3,381,145019,150122
2026-04-19T00:03:25.242,3,382,145019,150122
2026-04-19T00:03:25.252,3,383,144170,149440
2026-04-19T00:03:25.263,3,384,144170,149440
2026-04-19T00:03:25.272,3,385,144170,149440
2026-04-19T00:03:25.282,3,386,144170,149440
2026-04-19T00:03:25.292,3,387,143751,149123
2026-04-19T00:03:25.302,3,388,143751,149123
2026-04-19T00:03:25.312,3,389,143751,149123
2026-04-19T00:03:25.322,3,390,143751,149123
2026-04-19T00:03:25.332,3,391,143261,148744
2026-04-19T00:03:25.342,3,392,143261,148744
2026-04-19T00:03:25.352,3,393,143261,148744
2026-04-19T00:03:25.362,3,394,143261,148744
2026-04-19T00:03:25.372,3,395,142668,148265
2026-04-19T00:03:25.382,3,396,142668,148265
2026-04-19T00:03:25.392,3,397,142668,148265
2026-04-19T00:03:25.402,3,398,142668,148265
2026-04-19T00:03:25.412,3,399,142288,147973
2026-04-19T00:03:25.422,3,400,142288,147973
2026-04-19T00:03:25.432,3,401,142288,147973
2026-04-19T00:03:25.442,3,402,142288,147973
2026-04-19T00:03:25.452,3,403,142100,147826
2026-04-19T00:03:25.462,3,404,142100,147826
2026-04-19T00:03:25.472,3,405,142100,147826
2026-04-19T00:03:25.482,3,406,142100,147826
2026-04-19T00:03:25.492,3,407,142055,147821
2026-04-19T00:03:25.503,3,408,142055,147821
2026-04-19T00:03:25.512,3,409,142055,147821
2026-04-19T00:03:25.522,3,410,142055,147821
2026-04-19T00:03:25.532,3,411,142213,147932
2026-04-19T00:03:25.542,3,412,142213,147932
2026-04-19T00:03:25.552,3,413,142213,147932
2026-04-19T00:03:25.562,3,414,142213,147932
2026-04-19T00:03:25.572,3,415,141926,147729
2026-04-19T00:03:25.582,3,416,141926,147729
2026-04-19T00:03:25.592,3,417,141926,147729
2026-04-19T00:03:25.602,3,418,141926,147729
2026-04-19T00:03:25.612,3,419,141601,147456
2026-04-19T00:03:25.622,3,420,141601,147456
2026-04-19T00:03:25.632,3,421,141601,147456
2026-04-19T00:03:25.642,3,422,141601,147456
2026-04-19T00:03:25.652,3,423,141374,147261
2026-04-19T00:03:25.662,3,424,141374,147261
2026-04-19T00:03:25.672,3,425,141374,147261
2026-04-19T00:03:25.682,3,426,141374,147261
2026-04-19T00:03:25.692,3,427,141363,147238
2026-04-19T00:03:25.702,3,428,141363,147238
2026-04-19T00:03:25.712,3,429,141363,147238
2026-04-19T00:03:25.722,3,430,141363,147238
2026-04-19T00:03:25.732,3,431,141568,147402
2026-04-19T00:03:25.742,3,432,141568,147402
2026-04-19T00:03:25.752,3,433,141568,147402
2026-04-19T00:03:25.762,3,434,141568,147402
2026-04-19T00:03:25.772,3,435,140843,146803
2026-04-19T00:03:25.782,3,436,140843,146803
2026-04-19T00:03:25.792,3,437,140843,146803
2026-04-19T00:03:25.802,3,438,140843,146803
2026-04-19T00:03:25.811,3,439,140421,146435
2026-04-19T00:03:25.822,3,440,140421,146435
2026-04-19T00:03:25.832,3,441,140421,146435
2026-04-19T00:03:25.842,3,442,140421,146435
2026-04-19T00:03:25.852,3,443,139903,146009
2026-04-19T00:03:25.862,3,444,139903,146009
2026-04-19T00:03:25.871,3,445,139903,146009
2026-04-19T00:03:25.882,3,446,139903,146009
2026-04-19T00:03:25.892,3,447,139828,145966
2026-04-19T00:03:25.902,3,448,139828,145966
2026-04-19T00:03:25.912,3,449,139828,145966
2026-04-19T00:03:25.922,3,450,139828,145966
2026-04-19T00:03:25.932,3,451,139708,145871
2026-04-19T00:03:25.941,3,452,139708,145871
2026-04-19T00:03:25.951,3,453,139708,145871
2026-04-19T00:03:25.962,3,454,139708,145871
2026-04-19T00:03:25.972,3,455,139558,145774
2026-04-19T00:03:25.981,3,456,139558,145774
2026-04-19T00:03:25.992,3,457,139558,145774
2026-04-19T00:03:26.001,3,458,139558,145774
2026-04-19T00:03:26.012,3,459,139368,145599
2026-04-19T00:03:26.021,3,460,139368,145599
2026-04-19T00:03:26.032,3,461,139368,145599
2026-04-19T00:03:26.041,3,462,139368,145599
2026-04-19T00:03:26.052,3,463,139424,145681
2026-04-19T00:03:26.062,3,464,139424,145681
2026-04-19T00:03:26.071,3,465,139424,145681
2026-04-19T00:03:26.081,3,466,139424,145681
2026-04-19T00:03:26.091,3,467,139952,146106
2026-04-19T00:03:26.101,3,468,139952,146106
2026-04-19T00:03:26.111,3,469,139952,146106
2026-04-19T00:03:26.121,3,470,139952,146106
2026-04-19T00:03:26.131,3,471,141458,147320
2026-04-19T00:03:26.141,3,472,141458,147320
2026-04-19T00:03:26.151,3,473,141458,147320
2026-04-19T00:03:26.161,3,474,141458,147320
2026-04-19T00:03:26.171,3,475,143496,148952
2026-04-19T00:03:26.181,3,476,143496,148952
2026-04-19T00:03:26.191,3,477,143496,148952
2026-04-19T00:03:26.201,3,478,143496,148952
2026-04-19T00:03:26.211,3,479,145123,150201
2026-04-19T00:03:26.221,3,480,145123,150201
2026-04-19T00:03:26.231,3,481,145123,150201
2026-04-19T00:03:26.241,3,482,145123,150201
2026-04-19T00:03:26.251,3,483,147387,151889
2026-04-19T00:03:26.261,3,484,147387,151889
2026-04-19T00:03:26.271,3,485,147387,151889
2026-04-19T00:03:26.281,3,486,147387,151889
2026-04-19T00:03:26.291,3,487,149516,153431
2026-04-19T00:03:26.301,3,488,149516,153431
2026-04-19T00:03:26.311,3,489,149516,153431
2026-04-19T00:03:26.321,3,490,149516,153431
2026-04-19T00:03:26.331,3,491,150657,154212
2026-04-19T00:03:26.341,3,492,150657,154212
2026-04-19T00:03:26.351,3,493,150657,154212
2026-04-19T00:03:26.361,3,494,150657,154212
2026-04-19T00:03:26.371,3,495,151967,155086
2026-04-19T00:03:26.381,3,496,151967,155086
2026-04-19T00:03:26.391,3,497,151967,155086
2026-04-19T00:03:26.401,3,498,151967,155086
2026-04-19T00:03:26.411,3,499,153704,156178
2026-04-19T00:03:26.421,3,500,153704,156178
2026-04-19T00:03:26.431,3,501,153704,156178
2026-04-19T00:03:26.441,3,502,153704,156178
2026-04-19T00:03:26.451,3,503,155674,157452
2026-04-19T00:03:26.461,3,504,155674,157452
2026-04-19T00:03:26.471,3,505,155674,157452
2026-04-19T00:03:26.481,3,506,155674,157452
2026-04-19T00:03:26.491,3,507,156348,157859
2026-04-19T00:03:26.501,3,508,156348,157859
2026-04-19T00:03:26.511,3,509,156348,157859
2026-04-19T00:03:26.521,3,510,156348,157859
2026-04-19T00:03:26.531,3,511,157464,158531
2026-04-19T00:03:26.541,3,512,157464,158531
2026-04-19T00:03:26.551,3,513,157464,158531
2026-04-19T00:03:26.561,3,514,157464,158531
2026-04-19T00:03:26.571,3,515,157733,158714
2026-04-19T00:03:26.581,3,516,157733,158714
2026-04-19T00:03:26.591,3,517,157733,158714
2026-04-19T00:03:26.601,3,518,157733,158714
2026-04-19T00:03:26.611,3,519,158127,158939
2026-04-19T00:03:26.621,3,520,158127,158939
2026-04-19T00:03:26.631,3,521,158127,158939
2026-04-19T00:03:26.641,3,522,158127,158939
2026-04-19T00:03:26.651,3,523,158745,159308
2026-04-19T00:03:26.661,3,524,158745,159308
2026-04-19T00:03:26.671,3,525,158745,159308
2026-04-19T00:03:26.680,3,526,158745,159308
2026-04-19T00:03:26.691,3,527,159115,159520
2026-04-19T00:03:26.701,3,528,159115,159520
2026-04-19T00:03:26.711,3,529,159115,159520
2026-04-19T00:03:26.721,3,530,159115,159520
2026-04-19T00:03:26.731,3,531,159614,159849
2026-04-19T00:03:26.741,3,532,159614,159849
2026-04-19T00:03:26.751,3,533,159614,159849
2026-04-19T00:03:26.761,3,534,159614,159849
2026-04-19T00:03:26.771,3,535,160051,160072
2026-04-19T00:03:26.781,3,536,160051,160072
2026-04-19T00:03:26.791,3,537,160051,160072
2026-04-19T00:03:26.801,3,538,160051,160072
2026-04-19T00:03:26.810,3,539,160470,160281
2026-04-19T00:03:26.820,3,540,160470,160281
2026-04-19T00:03:26.831,3,541,160470,160281
2026-04-19T00:03:26.841,3,542,160470,160281
2026-04-19T00:03:26.851,3,543,160698,160378
2026-04-19T00:03:26.861,3,544,160698,160378
2026-04-19T00:03:26.871,3,545,160698,160378
2026-04-19T00:03:26.880,3,546,160698,160378
2026-04-19T00:03:26.890,3,547,161189,160588
2026-04-19T00:03:26.900,3,548,161189,160588
2026-04-19T00:03:26.910,3,549,161189,160588
2026-04-19T00:03:26.920,3,550,161189,160588
2026-04-19T00:03:26.931,3,551,161484,160781
2026-04-19T00:03:26.940,3,552,161484,160781
2026-04-19T00:03:26.951,3,553,161484,160781
2026-04-19T00:03:26.960,3,554,161484,160781
2026-04-19T00:03:26.970,3,555,161158,160637
2026-04-19T00:03:26.980,3,556,161158,160637
2026-04-19T00:03:26.990,3,557,161158,160637
2026-04-19T00:03:27.000,3,558,161158,160637
2026-04-19T00:03:27.011,3,559,161189,160601
2026-04-19T00:03:27.020,3,560,161189,160601
2026-04-19T00:03:27.030,3,561,161189,160601
2026-04-19T00:03:27.040,3,562,161189,160601
2026-04-19T00:03:27.050,3,563,161946,160945
2026-04-19T00:03:27.060,3,564,161946,160945
2026-04-19T00:03:27.070,3,565,161946,160945
2026-04-19T00:03:27.080,3,566,161946,160945
2026-04-19T00:03:27.091,3,567,162751,161315
2026-04-19T00:03:27.100,3,568,162751,161315
2026-04-19T00:03:27.110,3,569,162751,161315
2026-04-19T00:03:27.120,3,570,162751,161315
2026-04-19T00:03:27.130,3,571,162719,161280
2026-04-19T00:03:27.140,3,572,162719,161280
2026-04-19T00:03:27.150,3,573,162719,161280
2026-04-19T00:03:27.161,3,574,162719,161280
2026-04-19T00:03:27.170,3,575,163027,161361
2026-04-19T00:03:27.180,3,576,163027,161361
2026-04-19T00:03:27.190,3,577,163027,161361
2026-04-19T00:03:27.200,3,578,163027,161361
2026-04-19T00:03:27.210,3,579,163196,161424
2026-04-19T00:03:27.220,3,580,163196,161424
2026-04-19T00:03:27.230,3,581,163196,161424
2026-04-19T00:03:27.240,3,582,163196,161424
2026-04-19T00:03:27.250,3,583,163556,161528
2026-04-19T00:03:27.260,3,584,163556,161528
2026-04-19T00:03:27.270,3,585,163556,161528
2026-04-19T00:03:27.280,3,586,163556,161528
2026-04-19T00:03:27.290,3,587,163863,161641
2026-04-19T00:03:27.300,3,588,163863,161641
2026-04-19T00:03:27.310,3,589,163863,161641
2026-04-19T00:03:27.320,3,590,163863,161641
2026-04-19T00:03:27.330,3,591,163243,161676
2026-04-19T00:03:27.340,3,592,163243,161676
2026-04-19T00:03:27.350,3,593,163243,161676
2026-04-19T00:03:27.360,3,594,163243,161676
2026-04-19T00:03:27.370,3,595,163376,161704
2026-04-19T00:03:27.380,3,596,163376,161704
2026-04-19T00:03:27.390,3,597,163376,161704
2026-04-19T00:03:27.400,3,598,163376,161704
2026-04-19T00:03:27.410,3,599,163339,161682
2026-04-19T00:03:27.420,3,600,163339,161682
2026-04-19T00:03:27.430,3,601,163339,161682
2026-04-19T00:03:27.440,3,602,163339,161682
2026-04-19T00:03:27.450,3,603,163161,161660
2026-04-19T00:03:27.460,3,604,163161,161660
2026-04-19T00:03:27.469,3,605,163161,161660
2026-04-19T00:03:27.479,3,606,163161,161660
2026-04-19T00:03:27.490,3,607,163207,161688
2026-04-19T00:03:27.499,3,608,163207,161688
2026-04-19T00:03:27.509,3,609,163207,161688
2026-04-19T00:03:27.519,3,610,163207,161688
2026-04-19T00:03:27.530,3,611,163158,161721
2026-04-19T00:03:27.539,3,612,163158,161721
2026-04-19T00:03:27.549,3,613,163158,161721
2026-04-19T00:03:27.560,3,614,163158,161721
2026-04-19T00:03:27.569,3,615,163143,161744
2026-04-19T00:03:27.579,3,616,163143,161744
2026-04-19T00:03:27.589,3,617,163143,161744
2026-04-19T00:03:27.599,3,618,163143,161744
2026-04-19T00:03:27.609,3,619,163345,161780
2026-04-19T00:03:27.620,3,620,163345,161780
2026-04-19T00:03:27.629,3,621,163345,161780
2026-04-19T00:03:27.640,3,622,163345,161780
2026-04-19T00:03:27.650,3,623,164072,161999
2026-04-19T00:03:27.659,3,624,164072,161999
2026-04-19T00:03:27.670,3,625,164072,161999
2026-04-19T00:03:27.679,3,626,164072,161999
2026-04-19T00:03:27.689,3,627,164354,162081
2026-04-19T00:03:27.699,3,628,164354,162081
2026-04-19T00:03:27.709,3,629,164354,162081
2026-04-19T00:03:27.719,3,630,164354,162081
2026-04-19T00:03:27.730,3,631,164234,162082
2026-04-19T00:03:27.739,3,632,164234,162082
2026-04-19T00:03:27.750,3,633,164234,162082
2026-04-19T00:03:27.760,3,634,164234,162082
2026-04-19T00:03:27.770,3,635,163813,161942
2026-04-19T00:03:27.779,3,636,163813,161942
2026-04-19T00:03:27.789,3,637,163813,161942
2026-04-19T00:03:27.799,3,638,163813,161942
2026-04-19T00:03:27.809,3,639,163570,161849
2026-04-19T00:03:27.819,3,640,163570,161849
2026-04-19T00:03:27.829,3,641,163570,161849
2026-04-19T00:03:27.839,3,642,163570,161849
2026-04-19T00:03:27.849,3,643,163685,161887
2026-04-19T00:03:27.859,3,644,163685,161887
2026-04-19T00:03:27.869,3,645,163685,161887
2026-04-19T00:03:27.879,3,646,163685,161887
2026-04-19T00:03:27.889,3,647,164172,162046
2026-04-19T00:03:27.899,3,648,164172,162046
2026-04-19T00:03:27.909,3,649,164172,162046
2026-04-19T00:03:27.919,3,650,164172,162046
2026-04-19T00:03:27.929,3,651,164521,162155
2026-04-19T00:03:27.939,3,652,164521,162155
2026-04-19T00:03:27.949,3,653,164521,162155
2026-04-19T00:03:27.959,3,654,164521,162155
2026-04-19T00:03:27.969,3,655,164554,162137
2026-04-19T00:03:27.979,3,656,164554,162137
2026-04-19T00:03:27.989,3,657,164554,162137
2026-04-19T00:03:27.999,3,658,164554,162137
2026-04-19T00:03:28.009,3,659,164588,162146
2026-04-19T00:03:28.019,3,660,164588,162146
2026-04-19T00:03:28.029,3,661,164588,162146
2026-04-19T00:03:28.039,3,662,164588,162146
2026-04-19T00:03:28.049,3,663,164350,162070
2026-04-19T00:03:28.059,3,664,164350,162070
2026-04-19T00:03:28.069,3,665,164350,162070
2026-04-19T00:03:28.079,3,666,164350,162070
2026-04-19T00:03:28.089,3,667,164054,161979
2026-04-19T00:03:28.099,3,668,164054,161979
2026-04-19T00:03:28.109,3,669,164054,161979
2026-04-19T00:03:28.119,3,670,164054,161979
2026-04-19T00:03:28.129,3,671,163752,161822
2026-04-19T00:03:28.139,3,672,163752,161822
2026-04-19T00:03:28.149,3,673,163752,161822
2026-04-19T00:03:28.159,3,674,163752,161822
2026-04-19T00:03:28.169,3,675,163726,161795
2026-04-19T00:03:28.179,3,676,163726,161795
2026-04-19T00:03:28.189,3,677,163726,161795
2026-04-19T00:03:28.199,3,678,163726,161795
2026-04-19T00:03:28.209,3,679,164022,161853
2026-04-19T00:03:28.219,3,680,164022,161853
2026-04-19T00:03:28.229,3,681,164022,161853
2026-04-19T00:03:28.239,3,682,164022,161853
2026-04-19T00:03:28.249,3,683,164314,161930
2026-04-19T00:03:28.259,3,684,164314,161930
2026-04-19T00:03:28.269,3,685,164314,161930
2026-04-19T00:03:28.279,3,686,164314,161930
2026-04-19T00:03:28.288,3,687,164232,161926
2026-04-19T00:03:28.298,3,688,164232,161926
2026-04-19T00:03:28.308,3,689,164232,161926
2026-04-19T00:03:28.318,3,690,164232,161926
2026-04-19T00:03:28.328,3,691,164182,161974
2026-04-19T00:03:28.339,3,692,164182,161974
2026-04-19T00:03:28.349,3,693,164182,161974
2026-04-19T00:03:28.359,3,694,164182,161974
2026-04-19T00:03:28.369,3,695,164178,162029
2026-04-19T00:03:28.379,3,696,164178,162029
2026-04-19T00:03:28.389,3,697,164178,162029
2026-04-19T00:03:28.399,3,698,164178,162029
2026-04-19T00:03:28.409,3,699,163950,162013
2026-04-19T00:03:28.419,3,700,163950,162013
2026-04-19T00:03:28.429,3,701,163950,162013
2026-04-19T00:03:28.439,3,702,163950,162013
2026-04-19T00:03:28.449,3,703,163787,161979
2026-04-19T00:03:28.459,3,704,163787,161979
2026-04-19T00:03:28.469,3,705,163787,161979
2026-04-19T00:03:28.478,3,706,163787,161979
2026-04-19T00:03:28.488,3,707,164702,162259
2026-04-19T00:03:28.498,3,708,164702,162259
2026-04-19T00:03:28.509,3,709,164702,162259
2026-04-19T00:03:28.519,3,710,164702,162259
2026-04-19T00:03:28.529,3,711,165361,162460
2026-04-19T00:03:28.539,3,712,165361,162460
2026-04-19T00:03:28.549,3,713,165361,162460
2026-04-19T00:03:28.559,3,714,165361,162460
2026-04-19T00:03:28.569,3,715,165770,162514
2026-04-19T00:03:28.579,3,716,165770,162514
2026-04-19T00:03:28.589,3,717,165770,162514
2026-04-19T00:03:28.599,3,718,165770,162514
2026-04-19T00:03:28.608,3,719,165894,162517
2026-04-19T00:03:28.619,3,720,165894,162517
2026-04-19T00:03:28.628,3,721,165894,162517
2026-04-19T00:03:28.638,3,722,165894,162517
2026-04-19T00:03:28.649,3,723,165707,162454
2026-04-19T00:03:28.659,3,724,165707,162454
2026-04-19T00:03:28.669,3,725,165707,162454
2026-04-19T00:03:28.678,3,726,165707,162454
2026-04-19T00:03:28.689,3,727,165546,162370
2026-04-19T00:03:28.698,3,728,165546,162370
