timestamp,window,sample,ir_raw,red_raw,true_hr
2026-04-18T20:06:44.967,1,0,172509,145225,84.0
2026-04-18T20:06:45.008,1,1,172509,145225,84.0
2026-04-18T20:06:45.048,1,2,172993,146133,84.0
2026-04-18T20:06:45.087,1,3,172993,146133,84.0
2026-04-18T20:06:45.127,1,4,172993,146133,84.0
2026-04-18T20:06:45.168,1,5,172993,146133,84.0
2026-04-18T20:06:45.207,1,6,173395,147027,84.0
2026-04-18T20:06:45.248,1,7,173395,147027,84.0
2026-04-18T20:06:45.288,1,8,173395,147027,84.0
2026-04-18T20:06:45.327,1,9,173395,147027,84.0
2026-04-18T20:06:45.368,1,10,173498,147433,84.0
2026-04-18T20:06:45.407,1,11,173498,147433,84.0
2026-04-18T20:06:45.447,1,12,173498,147433,84.0
2026-04-18T20:06:45.488,1,13,173498,147433,84.0
2026-04-18T20:06:45.527,1,14,173335,146968,84.0
2026-04-18T20:06:45.568,1,15,173335,146968,84.0
2026-04-18T20:06:45.607,1,16,173335,146968,84.0
2026-04-18T20:06:45.647,1,17,173335,146968,84.0
2026-04-18T20:06:45.687,1,18,173225,146391,84.0
2026-04-18T20:06:45.727,1,19,173225,146391,84.0
2026-04-18T20:06:45.767,1,20,173225,146391,84.0
2026-04-18T20:06:45.807,1,21,173225,146391,84.0
2026-04-18T20:06:45.847,1,22,173607,148419,84.0
2026-04-18T20:06:45.887,1,23,173607,148419,84.0
2026-04-18T20:06:45.927,1,24,173607,148419,84.0
2026-04-18T20:06:45.967,1,25,173607,148419,84.0
2026-04-18T20:06:46.007,1,26,171576,145412,84.0
2026-04-18T20:06:46.046,1,27,171576,145412,84.0
2026-04-18T20:06:46.087,1,28,171576,145412,84.0
2026-04-18T20:06:46.127,1,29,171576,145412,84.0
2026-04-18T20:06:46.166,1,30,170944,143763,84.0
2026-04-18T20:06:46.207,1,31,170944,143763,84.0
2026-04-18T20:06:46.247,1,32,170944,143763,84.0
2026-04-18T20:06:46.287,1,33,170944,143763,84.0
2026-04-18T20:06:46.327,1,34,171139,143460,84.0
2026-04-18T20:06:46.366,1,35,171139,143460,84.0
2026-04-18T20:06:46.406,1,36,171139,143460,84.0
2026-04-18T20:06:46.446,1,37,171139,143460,84.0
2026-04-18T20:06:46.487,1,38,171516,143281,84.0
2026-04-18T20:06:46.526,1,39,171516,143281,84.0
2026-04-18T20:06:46.565,1,40,171516,143281,84.0
2026-04-18T20:06:46.606,1,41,171516,143281,84.0
2026-04-18T20:06:46.646,1,42,172624,145336,84.0
2026-04-18T20:06:46.686,1,43,172624,145336,84.0
2026-04-18T20:06:46.726,1,44,172624,145336,84.0
2026-04-18T20:06:46.766,1,45,172624,145336,84.0
2026-04-18T20:06:46.806,1,46,173426,146771,84.0
2026-04-18T20:06:46.846,1,47,173426,146771,84.0
2026-04-18T20:06:46.886,1,48,173426,146771,84.0
2026-04-18T20:06:46.926,1,49,173426,146771,84.0
2026-04-18T20:06:46.966,1,50,173958,147842,84.0
2026-04-18T20:06:47.006,1,51,173958,147842,84.0
2026-04-18T20:06:47.046,1,52,173958,147842,84.0
2026-04-18T20:06:47.086,1,53,173958,147842,84.0
2026-04-18T20:06:47.126,1,54,173536,146751,84.0
2026-04-18T20:06:47.165,1,55,173536,146751,84.0
2026-04-18T20:06:47.206,1,56,173536,146751,84.0
2026-04-18T20:06:47.245,1,57,173536,146751,84.0
2026-04-18T20:06:47.285,1,58,173681,147118,84.0
2026-04-18T20:06:47.325,1,59,173681,147118,84.0
2026-04-18T20:06:47.365,1,60,173681,147118,84.0
2026-04-18T20:06:47.405,1,61,173681,147118,84.0
2026-04-18T20:06:47.445,1,62,173981,147975,84.0
2026-04-18T20:06:47.485,1,63,173981,147975,84.0
2026-04-18T20:06:47.525,1,64,173981,147975,84.0
2026-04-18T20:06:47.565,1,65,173981,147975,84.0
2026-04-18T20:06:47.605,1,66,173440,146744,84.0
2026-04-18T20:06:47.645,1,67,173440,146744,84.0
2026-04-18T20:06:47.685,1,68,173440,146744,84.0
2026-04-18T20:06:47.726,1,69,173440,146744,84.0
2026-04-18T20:06:47.765,1,70,172993,145740,84.0
2026-04-18T20:06:47.805,1,71,172993,145740,84.0
2026-04-18T20:06:47.844,1,72,172993,145740,84.0
2026-04-18T20:06:47.884,1,73,172993,145740,84.0
2026-04-18T20:06:47.925,1,74,173303,146392,84.0
2026-04-18T20:06:47.964,1,75,173303,146392,84.0
2026-04-18T20:06:48.004,1,76,173303,146392,84.0
2026-04-18T20:06:48.045,1,77,173303,146392,84.0
2026-04-18T20:06:48.085,1,78,173720,147386,84.0
2026-04-18T20:06:48.124,1,79,173720,147386,84.0
2026-04-18T20:06:48.165,1,80,173720,147386,84.0
2026-04-18T20:06:48.205,1,81,173720,147386,84.0
2026-04-18T20:06:48.244,1,82,174066,148180,84.0
2026-04-18T20:06:48.284,1,83,174066,148180,84.0
2026-04-18T20:06:48.324,1,84,174066,148180,84.0
2026-04-18T20:06:48.364,1,85,174066,148180,84.0
2026-04-18T20:06:48.404,1,86,174216,148425,84.0
2026-04-18T20:06:48.444,1,87,174216,148425,84.0
2026-04-18T20:06:48.484,1,88,174216,148425,84.0
2026-04-18T20:06:48.524,1,89,174216,148425,84.0
2026-04-18T20:06:48.564,1,90,174587,149337,84.0
2026-04-18T20:06:48.604,1,91,174587,149337,84.0
2026-04-18T20:06:48.644,1,92,174587,149337,84.0
2026-04-18T20:06:48.684,1,93,174587,149337,84.0
2026-04-18T20:06:48.724,1,94,174705,149737,84.0
2026-04-18T20:06:48.764,1,95,174705,149737,84.0
2026-04-18T20:06:48.804,1,96,174705,149737,84.0
2026-04-18T20:06:48.844,1,97,174705,149737,84.0
2026-04-18T20:06:48.884,1,98,174549,149307,84.0
2026-04-18T20:06:48.923,1,99,174549,149307,84.0
2026-04-18T20:06:48.964,1,100,174549,149307,84.0
2026-04-18T20:06:49.004,1,101,174549,149307,84.0
2026-04-18T20:06:49.043,1,102,174569,149130,84.0
2026-04-18T20:06:49.083,1,103,174569,149130,84.0
2026-04-18T20:06:49.123,1,104,174569,149130,84.0
2026-04-18T20:06:49.163,1,105,174569,149130,84.0
2026-04-18T20:06:49.203,1,106,174618,149348,84.0
2026-04-18T20:06:49.243,1,107,174618,149348,84.0
2026-04-18T20:06:49.283,1,108,174618,149348,84.0
2026-04-18T20:06:49.323,1,109,174618,149348,84.0
2026-04-18T20:06:49.363,1,110,173619,146458,84.0
2026-04-18T20:06:49.403,1,111,173619,146458,84.0
2026-04-18T20:06:49.443,1,112,173619,146458,84.0
2026-04-18T20:06:49.484,1,113,173619,146458,84.0
2026-04-18T20:06:49.523,1,114,173319,145433,84.0
2026-04-18T20:06:49.563,1,115,173319,145433,84.0
2026-04-18T20:06:49.604,1,116,173319,145433,84.0
2026-04-18T20:06:49.643,1,117,173319,145433,84.0
2026-04-18T20:06:49.683,1,118,172800,143774,84.0
2026-04-18T20:06:49.723,1,119,172800,143774,84.0
2026-04-18T20:06:49.762,1,120,172800,143774,84.0
2026-04-18T20:06:49.803,1,121,172800,143774,84.0
2026-04-18T20:06:49.843,1,122,172748,144033,84.0
2026-04-18T20:06:49.883,1,123,172748,144033,84.0
2026-04-18T20:06:49.923,1,124,172748,144033,84.0
2026-04-18T20:06:49.962,1,125,172748,144033,84.0
2026-04-18T20:06:50.003,1,126,172088,143153,84.0
2026-04-18T20:06:50.042,1,127,172088,143153,84.0
2026-04-18T20:06:50.082,1,128,172088,143153,84.0
2026-04-18T20:06:50.122,1,129,172088,143153,84.0
2026-04-18T20:06:50.162,1,130,171179,141565,84.0
2026-04-18T20:06:50.203,1,131,171179,141565,84.0
2026-04-18T20:06:50.242,1,132,171179,141565,84.0
2026-04-18T20:06:50.283,1,133,171179,141565,84.0
2026-04-18T20:06:50.322,1,134,171259,141531,84.0
2026-04-18T20:06:50.362,1,135,171259,141531,84.0
2026-04-18T20:06:50.402,1,136,171259,141531,84.0
2026-04-18T20:06:50.442,1,137,171259,141531,84.0
2026-04-18T20:06:50.482,1,138,172097,143134,84.0
2026-04-18T20:06:50.523,1,139,172097,143134,84.0
2026-04-18T20:06:50.562,1,140,172097,143134,84.0
2026-04-18T20:06:50.602,1,141,172097,143134,84.0
2026-04-18T20:06:50.643,1,142,172598,144014,84.0
2026-04-18T20:06:50.681,1,143,172598,144014,84.0
2026-04-18T20:06:50.722,1,144,172598,144014,84.0
2026-04-18T20:06:50.762,1,145,172598,144014,84.0
2026-04-18T20:06:50.802,1,146,173116,144884,84.0
2026-04-18T20:06:50.841,1,147,173116,144884,84.0
2026-04-18T20:06:50.882,1,148,173116,144884,84.0
2026-04-18T20:06:50.922,1,149,173116,144884,84.0
2026-04-18T20:06:50.962,1,150,173672,145935,84.0
2026-04-18T20:06:51.002,1,151,173672,145935,84.0
2026-04-18T20:06:51.042,1,152,173672,145935,84.0
2026-04-18T20:06:51.082,1,153,173672,145935,84.0
2026-04-18T20:06:51.122,1,154,174453,148052,84.0
2026-04-18T20:06:51.162,1,155,174453,148052,84.0
2026-04-18T20:06:51.202,1,156,174453,148052,84.0
2026-04-18T20:06:51.242,1,157,174453,148052,84.0
2026-04-18T20:06:51.282,1,158,174778,148886,84.0
2026-04-18T20:06:51.322,1,159,174778,148886,84.0
2026-04-18T20:06:51.361,1,160,174778,148886,84.0
2026-04-18T20:06:51.401,1,161,174778,148886,84.0
2026-04-18T20:06:51.441,1,162,174779,148910,84.0
2026-04-18T20:06:51.481,1,163,174779,148910,84.0
2026-04-18T20:06:51.521,1,164,174779,148910,84.0
2026-04-18T20:06:51.561,1,165,174779,148910,84.0
2026-04-18T20:06:51.602,1,166,174859,148924,84.0
2026-04-18T20:06:51.642,1,167,174859,148924,84.0
2026-04-18T20:06:51.681,1,168,174859,148924,84.0
2026-04-18T20:06:51.721,1,169,174859,148924,84.0
2026-04-18T20:06:51.761,1,170,175046,149679,84.0
2026-04-18T20:06:51.801,1,171,175046,149679,84.0
2026-04-18T20:06:51.841,1,172,175046,149679,84.0
2026-04-18T20:06:51.880,1,173,175046,149679,84.0
2026-04-18T20:06:51.921,1,174,175003,149661,84.0
2026-04-18T20:06:51.961,1,175,175003,149661,84.0
2026-04-18T20:06:52.001,1,176,175003,149661,84.0
2026-04-18T20:06:52.041,1,177,175003,149661,84.0
2026-04-18T20:06:52.081,1,178,174836,149052,84.0
2026-04-18T20:06:52.121,1,179,174836,149052,84.0
2026-04-18T20:06:52.161,1,180,174836,149052,84.0
2026-04-18T20:06:52.201,1,181,174836,149052,84.0
2026-04-18T20:06:52.240,1,182,174440,147707,84.0
2026-04-18T20:06:52.280,1,183,174440,147707,84.0
2026-04-18T20:06:52.320,1,184,174440,147707,84.0
2026-04-18T20:06:52.360,1,185,174440,147707,84.0
2026-04-18T20:06:52.401,1,186,174313,147463,84.0
2026-04-18T20:06:52.440,1,187,174313,147463,84.0
2026-04-18T20:06:52.480,1,188,174313,147463,84.0
2026-04-18T20:06:52.520,1,189,174313,147463,84.0
2026-04-18T20:06:52.560,1,190,173788,146563,84.0
2026-04-18T20:06:52.600,1,191,173788,146563,84.0
2026-04-18T20:06:52.641,1,192,173788,146563,84.0
2026-04-18T20:06:52.680,1,193,173788,146563,84.0
2026-04-18T20:06:52.720,1,194,173140,145286,84.0
2026-04-18T20:06:52.759,1,195,173140,145286,84.0
2026-04-18T20:06:52.800,1,196,173140,145286,84.0
2026-04-18T20:06:52.840,1,197,173140,145286,84.0
2026-04-18T20:06:52.880,1,198,172681,144115,84.0
2026-04-18T20:06:52.919,1,199,172681,144115,84.0
2026-04-18T20:06:52.960,1,200,172681,144115,84.0
2026-04-18T20:06:53.000,1,201,172681,144115,84.0
2026-04-18T20:06:53.040,1,202,173302,145349,84.0
2026-04-18T20:06:53.080,1,203,173302,145349,84.0
2026-04-18T20:06:53.120,1,204,173302,145349,84.0
2026-04-18T20:06:53.159,1,205,173302,145349,84.0
2026-04-18T20:06:53.200,1,206,173966,147024,84.0
2026-04-18T20:06:53.240,1,207,173966,147024,84.0
2026-04-18T20:06:53.279,1,208,173966,147024,84.0
2026-04-18T20:06:53.320,1,209,173966,147024,84.0
2026-04-18T20:06:53.360,1,210,174152,147529,84.0
2026-04-18T20:06:53.399,1,211,174152,147529,84.0
2026-04-18T20:06:53.440,1,212,174152,147529,84.0
2026-04-18T20:06:53.479,1,213,174152,147529,84.0
2026-04-18T20:06:53.520,1,214,174336,147991,84.0
2026-04-18T20:06:53.559,1,215,174336,147991,84.0
2026-04-18T20:06:53.599,1,216,174336,147991,84.0
2026-04-18T20:06:53.639,1,217,174336,147991,84.0
2026-04-18T20:06:53.679,1,218,174513,148265,84.0
2026-04-18T20:06:53.719,1,219,174513,148265,84.0
2026-04-18T20:06:53.759,1,220,174513,148265,84.0
2026-04-18T20:06:53.799,1,221,174513,148265,84.0
2026-04-18T20:06:53.839,1,222,174825,149269,84.0
2026-04-18T20:06:53.879,1,223,174825,149269,84.0
2026-04-18T20:06:53.919,1,224,174825,149269,84.0
2026-04-18T20:06:53.958,1,225,174825,149269,84.0
2026-04-18T20:06:53.999,1,226,174938,149696,84.0
2026-04-18T20:06:54.039,1,227,174938,149696,84.0
2026-04-18T20:06:54.078,1,228,174938,149696,84.0
2026-04-18T20:06:54.119,1,229,174938,149696,84.0
2026-04-18T20:06:54.159,1,230,174777,149366,84.0
2026-04-18T20:06:54.199,1,231,174777,149366,84.0
2026-04-18T20:06:54.239,1,232,174777,149366,84.0
2026-04-18T20:06:54.278,1,233,174777,149366,84.0
2026-04-18T20:06:54.319,1,234,174697,149020,84.0
2026-04-18T20:06:54.359,1,235,174697,149020,84.0
2026-04-18T20:06:54.399,1,236,174697,149020,84.0
2026-04-18T20:06:54.438,1,237,174697,149020,84.0
2026-04-18T20:06:54.478,1,238,174906,149342,84.0
2026-04-18T20:06:54.518,1,239,174906,149342,84.0
2026-04-18T20:06:54.558,1,240,174906,149342,84.0
2026-04-18T20:06:54.598,1,241,174906,149342,84.0
2026-04-18T20:06:54.638,1,242,174500,148535,84.0
2026-04-18T20:06:54.678,1,243,174500,148535,84.0
2026-04-18T20:06:54.718,1,244,174500,148535,84.0
2026-04-18T20:06:54.758,1,245,174500,148535,84.0
2026-04-18T20:06:54.797,1,246,173310,146055,84.0
2026-04-18T20:06:54.838,1,247,173310,146055,84.0
2026-04-18T20:06:54.878,1,248,173310,146055,84.0
2026-04-18T20:06:54.918,1,249,173310,146055,84.0
2026-04-18T20:06:54.958,1,250,172171,143845,84.0
2026-04-18T20:06:57.435,2,0,176181,155059,88.0
2026-04-18T20:06:57.475,2,1,176181,155059,88.0
2026-04-18T20:06:57.515,2,2,175975,153715,88.0
2026-04-18T20:06:57.556,2,3,175975,153715,88.0
2026-04-18T20:06:57.595,2,4,175975,153715,88.0
2026-04-18T20:06:57.635,2,5,175975,153715,88.0
2026-04-18T20:06:57.675,2,6,175425,151488,88.0
2026-04-18T20:06:57.715,2,7,175425,151488,88.0
2026-04-18T20:06:57.755,2,8,175425,151488,88.0
2026-04-18T20:06:57.795,2,9,175425,151488,88.0
2026-04-18T20:06:57.835,2,10,174657,149008,88.0
2026-04-18T20:06:57.874,2,11,174657,149008,88.0
2026-04-18T20:06:57.915,2,12,174657,149008,88.0
2026-04-18T20:06:57.954,2,13,174657,149008,88.0
2026-04-18T20:06:57.995,2,14,174037,146919,88.0
2026-04-18T20:06:58.035,2,15,174037,146919,88.0
2026-04-18T20:06:58.074,2,16,174037,146919,88.0
2026-04-18T20:06:58.114,2,17,174037,146919,88.0
2026-04-18T20:06:58.154,2,18,173967,146948,88.0
2026-04-18T20:06:58.194,2,19,173967,146948,88.0
2026-04-18T20:06:58.234,2,20,173967,146948,88.0
2026-04-18T20:06:58.274,2,21,173967,146948,88.0
2026-04-18T20:06:58.314,2,22,174169,147664,88.0
2026-04-18T20:06:58.354,2,23,174169,147664,88.0
2026-04-18T20:06:58.394,2,24,174169,147664,88.0
2026-04-18T20:06:58.434,2,25,174169,147664,88.0
2026-04-18T20:06:58.474,2,26,174322,148096,88.0
2026-04-18T20:06:58.514,2,27,174322,148096,88.0
2026-04-18T20:06:58.554,2,28,174322,148096,88.0
2026-04-18T20:06:58.594,2,29,174322,148096,88.0
2026-04-18T20:06:58.634,2,30,174509,148394,88.0
2026-04-18T20:06:58.674,2,31,174509,148394,88.0
2026-04-18T20:06:58.713,2,32,174509,148394,88.0
2026-04-18T20:06:58.754,2,33,174509,148394,88.0
2026-04-18T20:06:58.793,2,34,174888,149467,88.0
2026-04-18T20:06:58.834,2,35,174888,149467,88.0
2026-04-18T20:06:58.873,2,36,174888,149467,88.0
2026-04-18T20:06:58.913,2,37,174888,149467,88.0
2026-04-18T20:06:58.953,2,38,175049,150265,88.0
2026-04-18T20:06:58.993,2,39,175049,150265,88.0
2026-04-18T20:06:59.034,2,40,175049,150265,88.0
2026-04-18T20:06:59.073,2,41,175049,150265,88.0
2026-04-18T20:06:59.113,2,42,174990,150140,88.0
2026-04-18T20:06:59.153,2,43,174990,150140,88.0
2026-04-18T20:06:59.193,2,44,174990,150140,88.0
2026-04-18T20:06:59.233,2,45,174990,150140,88.0
2026-04-18T20:06:59.273,2,46,174881,149871,88.0
2026-04-18T20:06:59.313,2,47,174881,149871,88.0
2026-04-18T20:06:59.353,2,48,174881,149871,88.0
2026-04-18T20:06:59.393,2,49,174881,149871,88.0
2026-04-18T20:06:59.433,2,50,174989,149881,88.0
2026-04-18T20:06:59.473,2,51,174989,149881,88.0
2026-04-18T20:06:59.513,2,52,174989,149881,88.0
2026-04-18T20:06:59.553,2,53,174989,149881,88.0
2026-04-18T20:06:59.593,2,54,175182,150553,88.0
2026-04-18T20:06:59.633,2,55,175182,150553,88.0
2026-04-18T20:06:59.673,2,56,175182,150553,88.0
2026-04-18T20:06:59.713,2,57,175182,150553,88.0
2026-04-18T20:06:59.753,2,58,175106,150256,88.0
2026-04-18T20:06:59.792,2,59,175106,150256,88.0
2026-04-18T20:06:59.833,2,60,175106,150256,88.0
2026-04-18T20:06:59.872,2,61,175106,150256,88.0
2026-04-18T20:06:59.912,2,62,174387,148249,88.0
2026-04-18T20:06:59.952,2,63,174387,148249,88.0
2026-04-18T20:06:59.992,2,64,174387,148249,88.0
2026-04-18T20:07:00.032,2,65,174387,148249,88.0
2026-04-18T20:07:00.072,2,66,173329,145711,88.0
2026-04-18T20:07:00.112,2,67,173329,145711,88.0
2026-04-18T20:07:00.152,2,68,173329,145711,88.0
2026-04-18T20:07:00.192,2,69,173329,145711,88.0
2026-04-18T20:07:00.232,2,70,172501,144071,88.0
2026-04-18T20:07:00.272,2,71,172501,144071,88.0
2026-04-18T20:07:00.312,2,72,172501,144071,88.0
2026-04-18T20:07:00.352,2,73,172501,144071,88.0
2026-04-18T20:07:00.392,2,74,172053,143727,88.0
2026-04-18T20:07:00.432,2,75,172053,143727,88.0
2026-04-18T20:07:00.472,2,76,172053,143727,88.0
2026-04-18T20:07:00.512,2,77,172053,143727,88.0
2026-04-18T20:07:00.551,2,78,171814,143326,88.0
2026-04-18T20:07:00.591,2,79,171814,143326,88.0
2026-04-18T20:07:00.632,2,80,171814,143326,88.0
2026-04-18T20:07:00.671,2,81,171814,143326,88.0
2026-04-18T20:07:00.711,2,82,169097,138571,88.0
2026-04-18T20:07:00.751,2,83,169097,138571,88.0
2026-04-18T20:07:00.791,2,84,169097,138571,88.0
2026-04-18T20:07:00.832,2,85,169097,138571,88.0
2026-04-18T20:07:00.871,2,86,166143,133881,88.0
2026-04-18T20:07:00.911,2,87,166143,133881,88.0
2026-04-18T20:07:00.951,2,88,166143,133881,88.0
2026-04-18T20:07:00.991,2,89,166143,133881,88.0
2026-04-18T20:07:01.031,2,90,164318,131371,88.0
2026-04-18T20:07:01.071,2,91,164318,131371,88.0
2026-04-18T20:07:01.110,2,92,164318,131371,88.0
2026-04-18T20:07:01.150,2,93,164318,131371,88.0
2026-04-18T20:07:01.191,2,94,162988,129382,88.0
2026-04-18T20:07:01.231,2,95,162988,129382,88.0
2026-04-18T20:07:01.270,2,96,162988,129382,88.0
2026-04-18T20:07:01.311,2,97,162988,129382,88.0
2026-04-18T20:07:01.351,2,98,162007,128253,88.0
2026-04-18T20:07:01.391,2,99,162007,128253,88.0
2026-04-18T20:07:01.431,2,100,162007,128253,88.0
2026-04-18T20:07:01.471,2,101,162007,128253,88.0
2026-04-18T20:07:01.511,2,102,162024,128405,88.0
2026-04-18T20:07:01.551,2,103,162024,128405,88.0
2026-04-18T20:07:01.590,2,104,162024,128405,88.0
2026-04-18T20:07:01.631,2,105,162024,128405,88.0
2026-04-18T20:07:01.671,2,106,162950,129624,88.0
2026-04-18T20:07:01.710,2,107,162950,129624,88.0
2026-04-18T20:07:01.750,2,108,162950,129624,88.0
2026-04-18T20:07:01.790,2,109,162950,129624,88.0
2026-04-18T20:07:01.830,2,110,163357,130351,88.0
2026-04-18T20:07:01.870,2,111,163357,130351,88.0
2026-04-18T20:07:01.910,2,112,163357,130351,88.0
2026-04-18T20:07:01.950,2,113,163357,130351,88.0
2026-04-18T20:07:01.990,2,114,163043,129694,88.0
2026-04-18T20:07:02.030,2,115,163043,129694,88.0
2026-04-18T20:07:02.070,2,116,163043,129694,88.0
2026-04-18T20:07:02.110,2,117,163043,129694,88.0
2026-04-18T20:07:02.150,2,118,162856,129310,88.0
2026-04-18T20:07:02.190,2,119,162856,129310,88.0
2026-04-18T20:07:02.230,2,120,162856,129310,88.0
2026-04-18T20:07:02.270,2,121,162856,129310,88.0
2026-04-18T20:07:02.309,2,122,162767,129059,88.0
2026-04-18T20:07:02.350,2,123,162767,129059,88.0
2026-04-18T20:07:02.390,2,124,162767,129059,88.0
2026-04-18T20:07:02.430,2,125,162767,129059,88.0
2026-04-18T20:07:02.470,2,126,162849,129243,88.0
2026-04-18T20:07:02.509,2,127,162849,129243,88.0
2026-04-18T20:07:02.550,2,128,162849,129243,88.0
2026-04-18T20:07:02.589,2,129,162849,129243,88.0
2026-04-18T20:07:02.629,2,130,162744,129083,88.0
2026-04-18T20:07:02.669,2,131,162744,129083,88.0
2026-04-18T20:07:02.709,2,132,162744,129083,88.0
2026-04-18T20:07:02.749,2,133,162744,129083,88.0
2026-04-18T20:07:02.789,2,134,162561,128825,88.0
2026-04-18T20:07:02.829,2,135,162561,128825,88.0
2026-04-18T20:07:02.869,2,136,162561,128825,88.0
2026-04-18T20:07:02.909,2,137,162561,128825,88.0
2026-04-18T20:07:02.949,2,138,162376,128531,88.0
2026-04-18T20:07:02.989,2,139,162376,128531,88.0
2026-04-18T20:07:03.028,2,140,162376,128531,88.0
2026-04-18T20:07:03.068,2,141,162376,128531,88.0
2026-04-18T20:07:03.109,2,142,162518,128810,88.0
2026-04-18T20:07:03.149,2,143,162518,128810,88.0
2026-04-18T20:07:03.189,2,144,162518,128810,88.0
2026-04-18T20:07:03.229,2,145,162518,128810,88.0
2026-04-18T20:07:03.269,2,146,162705,129233,88.0
2026-04-18T20:07:03.308,2,147,162705,129233,88.0
2026-04-18T20:07:03.348,2,148,162705,129233,88.0
2026-04-18T20:07:03.388,2,149,162705,129233,88.0
2026-04-18T20:07:03.429,2,150,162821,129512,88.0
2026-04-18T20:07:03.468,2,151,162821,129512,88.0
2026-04-18T20:07:03.508,2,152,162821,129512,88.0
2026-04-18T20:07:03.549,2,153,162821,129512,88.0
2026-04-18T20:07:03.588,2,154,162857,129616,88.0
2026-04-18T20:07:03.628,2,155,162857,129616,88.0
2026-04-18T20:07:03.668,2,156,162857,129616,88.0
2026-04-18T20:07:03.708,2,157,162857,129616,88.0
2026-04-18T20:07:03.748,2,158,162814,129516,88.0
2026-04-18T20:07:03.788,2,159,162814,129516,88.0
2026-04-18T20:07:03.828,2,160,162814,129516,88.0
2026-04-18T20:07:03.868,2,161,162814,129516,88.0
2026-04-18T20:07:03.908,2,162,162859,129646,88.0
2026-04-18T20:07:03.948,2,163,162859,129646,88.0
2026-04-18T20:07:03.988,2,164,162859,129646,88.0
2026-04-18T20:07:04.028,2,165,162859,129646,88.0
2026-04-18T20:07:04.068,2,166,162943,129888,88.0
2026-04-18T20:07:04.108,2,167,162943,129888,88.0
2026-04-18T20:07:04.148,2,168,162943,129888,88.0
2026-04-18T20:07:04.188,2,169,162943,129888,88.0
2026-04-18T20:07:04.228,2,170,162945,129892,88.0
2026-04-18T20:07:04.267,2,171,162945,129892,88.0
2026-04-18T20:07:04.307,2,172,162945,129892,88.0
2026-04-18T20:07:04.348,2,173,162945,129892,88.0
2026-04-18T20:07:04.387,2,174,162977,129982,88.0
2026-04-18T20:07:04.427,2,175,162977,129982,88.0
2026-04-18T20:07:04.467,2,176,162977,129982,88.0
2026-04-18T20:07:04.507,2,177,162977,129982,88.0
2026-04-18T20:07:04.547,2,178,162993,129889,88.0
2026-04-18T20:07:04.587,2,179,162993,129889,88.0
2026-04-18T20:07:04.627,2,180,162993,129889,88.0
2026-04-18T20:07:04.667,2,181,162993,129889,88.0
2026-04-18T20:07:04.707,2,182,163082,130010,88.0
2026-04-18T20:07:04.747,2,183,163082,130010,88.0
2026-04-18T20:07:04.786,2,184,163082,130010,88.0
2026-04-18T20:07:04.827,2,185,163082,130010,88.0
2026-04-18T20:07:04.866,2,186,162991,129858,88.0
2026-04-18T20:07:04.906,2,187,162991,129858,88.0
2026-04-18T20:07:04.947,2,188,162991,129858,88.0
2026-04-18T20:07:04.987,2,189,162991,129858,88.0
2026-04-18T20:07:05.026,2,190,162759,129393,88.0
2026-04-18T20:07:05.067,2,191,162759,129393,88.0
2026-04-18T20:07:05.107,2,192,162759,129393,88.0
2026-04-18T20:07:05.146,2,193,162759,129393,88.0
2026-04-18T20:07:05.186,2,194,162571,129000,88.0
2026-04-18T20:07:05.226,2,195,162571,129000,88.0
2026-04-18T20:07:05.266,2,196,162571,129000,88.0
2026-04-18T20:07:05.306,2,197,162571,129000,88.0
2026-04-18T20:07:05.346,2,198,162440,128749,88.0
2026-04-18T20:07:05.386,2,199,162440,128749,88.0
2026-04-18T20:07:05.426,2,200,162440,128749,88.0
2026-04-18T20:07:05.466,2,201,162440,128749,88.0
2026-04-18T20:07:05.506,2,202,162601,129140,88.0
2026-04-18T20:07:05.546,2,203,162601,129140,88.0
2026-04-18T20:07:05.586,2,204,162601,129140,88.0
2026-04-18T20:07:05.626,2,205,162601,129140,88.0
2026-04-18T20:07:05.666,2,206,162790,129561,88.0
2026-04-18T20:07:05.706,2,207,162790,129561,88.0
2026-04-18T20:07:05.746,2,208,162790,129561,88.0
2026-04-18T20:07:05.786,2,209,162790,129561,88.0
2026-04-18T20:07:05.826,2,210,162833,129652,88.0
2026-04-18T20:07:05.866,2,211,162833,129652,88.0
2026-04-18T20:07:05.906,2,212,162833,129652,88.0
2026-04-18T20:07:05.945,2,213,162833,129652,88.0
2026-04-18T20:07:05.986,2,214,162804,129605,88.0
2026-04-18T20:07:06.026,2,215,162804,129605,88.0
2026-04-18T20:07:06.066,2,216,162804,129605,88.0
2026-04-18T20:07:06.105,2,217,162804,129605,88.0
2026-04-18T20:07:06.145,2,218,162842,129643,88.0
2026-04-18T20:07:06.185,2,219,162842,129643,88.0
2026-04-18T20:07:06.225,2,220,162842,129643,88.0
2026-04-18T20:07:06.265,2,221,162842,129643,88.0
2026-04-18T20:07:06.305,2,222,162956,129933,88.0
2026-04-18T20:07:06.345,2,223,162956,129933,88.0
2026-04-18T20:07:06.385,2,224,162956,129933,88.0
2026-04-18T20:07:06.425,2,225,162956,129933,88.0
2026-04-18T20:07:06.465,2,226,163018,130086,88.0
2026-04-18T20:07:06.505,2,227,163018,130086,88.0
2026-04-18T20:07:06.545,2,228,163018,130086,88.0
2026-04-18T20:07:06.585,2,229,163018,130086,88.0
2026-04-18T20:07:06.625,2,230,162966,129947,88.0
2026-04-18T20:07:06.665,2,231,162966,129947,88.0
2026-04-18T20:07:06.705,2,232,162966,129947,88.0
2026-04-18T20:07:06.745,2,233,162966,129947,88.0
2026-04-18T20:07:06.785,2,234,162967,129880,88.0
2026-04-18T20:07:06.825,2,235,162967,129880,88.0
2026-04-18T20:07:06.865,2,236,162967,129880,88.0
2026-04-18T20:07:06.905,2,237,162967,129880,88.0
2026-04-18T20:07:06.945,2,238,163105,130107,88.0
2026-04-18T20:07:06.984,2,239,163105,130107,88.0
2026-04-18T20:07:07.025,2,240,163105,130107,88.0
2026-04-18T20:07:07.065,2,241,163105,130107,88.0
2026-04-18T20:07:07.105,2,242,163111,130149,88.0
2026-04-18T20:07:07.144,2,243,163111,130149,88.0
2026-04-18T20:07:07.185,2,244,163111,130149,88.0
2026-04-18T20:07:07.224,2,245,163111,130149,88.0
2026-04-18T20:07:07.264,2,246,162991,129907,88.0
2026-04-18T20:07:07.305,2,247,162991,129907,88.0
2026-04-18T20:07:07.344,2,248,162991,129907,88.0
2026-04-18T20:07:07.384,2,249,162991,129907,88.0
2026-04-18T20:07:07.424,2,250,162833,129534,88.0
2026-04-18T20:07:14.856,3,0,166572,135673,79.0
2026-04-18T20:07:14.896,3,1,166572,135673,79.0
2026-04-18T20:07:14.937,3,2,165827,134295,79.0
2026-04-18T20:07:14.976,3,3,165827,134295,79.0
2026-04-18T20:07:15.016,3,4,165827,134295,79.0
2026-04-18T20:07:15.056,3,5,165827,134295,79.0
2026-04-18T20:07:15.096,3,6,165138,132793,79.0
2026-04-18T20:07:15.136,3,7,165138,132793,79.0
2026-04-18T20:07:15.176,3,8,165138,132793,79.0
2026-04-18T20:07:15.216,3,9,165138,132793,79.0
2026-04-18T20:07:15.256,3,10,164960,132273,79.0
2026-04-18T20:07:15.296,3,11,164960,132273,79.0
2026-04-18T20:07:15.336,3,12,164960,132273,79.0
2026-04-18T20:07:15.375,3,13,164960,132273,79.0
2026-04-18T20:07:15.416,3,14,164386,131284,79.0
2026-04-18T20:07:15.455,3,15,164386,131284,79.0
2026-04-18T20:07:15.495,3,16,164386,131284,79.0
2026-04-18T20:07:15.536,3,17,164386,131284,79.0
2026-04-18T20:07:15.576,3,18,164522,131618,79.0
2026-04-18T20:07:15.616,3,19,164522,131618,79.0
2026-04-18T20:07:15.656,3,20,164522,131618,79.0
2026-04-18T20:07:15.695,3,21,164522,131618,79.0
2026-04-18T20:07:15.736,3,22,164323,131280,79.0
2026-04-18T20:07:15.775,3,23,164323,131280,79.0
2026-04-18T20:07:15.815,3,24,164323,131280,79.0
2026-04-18T20:07:15.855,3,25,164323,131280,79.0
2026-04-18T20:07:15.895,3,26,164345,131272,79.0
2026-04-18T20:07:15.935,3,27,164345,131272,79.0
2026-04-18T20:07:15.975,3,28,164345,131272,79.0
2026-04-18T20:07:16.015,3,29,164345,131272,79.0
2026-04-18T20:07:16.055,3,30,164472,131465,79.0
2026-04-18T20:07:16.095,3,31,164472,131465,79.0
2026-04-18T20:07:16.135,3,32,164472,131465,79.0
2026-04-18T20:07:16.175,3,33,164472,131465,79.0
2026-04-18T20:07:16.215,3,34,164651,131760,79.0
2026-04-18T20:07:16.255,3,35,164651,131760,79.0
2026-04-18T20:07:16.295,3,36,164651,131760,79.0
2026-04-18T20:07:16.335,3,37,164651,131760,79.0
2026-04-18T20:07:16.375,3,38,164126,130828,79.0
2026-04-18T20:07:16.415,3,39,164126,130828,79.0
2026-04-18T20:07:16.455,3,40,164126,130828,79.0
2026-04-18T20:07:16.495,3,41,164126,130828,79.0
2026-04-18T20:07:16.534,3,42,163721,130146,79.0
2026-04-18T20:07:16.574,3,43,163721,130146,79.0
2026-04-18T20:07:16.614,3,44,163721,130146,79.0
2026-04-18T20:07:16.654,3,45,163721,130146,79.0
2026-04-18T20:07:16.695,3,46,163213,129525,79.0
2026-04-18T20:07:16.734,3,47,163213,129525,79.0
2026-04-18T20:07:16.774,3,48,163213,129525,79.0
2026-04-18T20:07:16.814,3,49,163213,129525,79.0
2026-04-18T20:07:16.854,3,50,163014,129417,79.0
2026-04-18T20:07:16.894,3,51,163014,129417,79.0
2026-04-18T20:07:16.934,3,52,163014,129417,79.0
2026-04-18T20:07:16.974,3,53,163014,129417,79.0
2026-04-18T20:07:17.014,3,54,162933,129358,79.0
2026-04-18T20:07:17.054,3,55,162933,129358,79.0
2026-04-18T20:07:17.094,3,56,162933,129358,79.0
2026-04-18T20:07:17.134,3,57,162933,129358,79.0
2026-04-18T20:07:17.174,3,58,162939,129411,79.0
2026-04-18T20:07:17.214,3,59,162939,129411,79.0
2026-04-18T20:07:17.254,3,60,162939,129411,79.0
2026-04-18T20:07:17.294,3,61,162939,129411,79.0
2026-04-18T20:07:17.334,3,62,163068,129603,79.0
2026-04-18T20:07:17.374,3,63,163068,129603,79.0
2026-04-18T20:07:17.413,3,64,163068,129603,79.0
2026-04-18T20:07:17.454,3,65,163068,129603,79.0
2026-04-18T20:07:17.493,3,66,163290,130023,79.0
2026-04-18T20:07:17.533,3,67,163290,130023,79.0
2026-04-18T20:07:17.573,3,68,163290,130023,79.0
2026-04-18T20:07:17.613,3,69,163290,130023,79.0
2026-04-18T20:07:17.653,3,70,163553,130602,79.0
2026-04-18T20:07:17.693,3,71,163553,130602,79.0
2026-04-18T20:07:17.733,3,72,163553,130602,79.0
2026-04-18T20:07:17.773,3,73,163553,130602,79.0
2026-04-18T20:07:17.813,3,74,163614,130711,79.0
2026-04-18T20:07:17.853,3,75,163614,130711,79.0
2026-04-18T20:07:17.892,3,76,163614,130711,79.0
2026-04-18T20:07:17.933,3,77,163614,130711,79.0
2026-04-18T20:07:17.973,3,78,163575,130593,79.0
2026-04-18T20:07:18.013,3,79,163575,130593,79.0
2026-04-18T20:07:18.053,3,80,163575,130593,79.0
2026-04-18T20:07:18.093,3,81,163575,130593,79.0
2026-04-18T20:07:18.132,3,82,163560,130486,79.0
2026-04-18T20:07:18.173,3,83,163560,130486,79.0
2026-04-18T20:07:18.212,3,84,163560,130486,79.0
2026-04-18T20:07:18.253,3,85,163560,130486,79.0
2026-04-18T20:07:18.292,3,86,163696,130800,79.0
2026-04-18T20:07:18.333,3,87,163696,130800,79.0
2026-04-18T20:07:18.372,3,88,163696,130800,79.0
2026-04-18T20:07:18.412,3,89,163696,130800,79.0
2026-04-18T20:07:18.452,3,90,163772,130946,79.0
2026-04-18T20:07:18.492,3,91,163772,130946,79.0
2026-04-18T20:07:18.532,3,92,163772,130946,79.0
2026-04-18T20:07:18.572,3,93,163772,130946,79.0
2026-04-18T20:07:18.612,3,94,163719,130827,79.0
2026-04-18T20:07:18.652,3,95,163719,130827,79.0
2026-04-18T20:07:18.692,3,96,163719,130827,79.0
2026-04-18T20:07:18.732,3,97,163719,130827,79.0
2026-04-18T20:07:18.772,3,98,163749,130769,79.0
2026-04-18T20:07:18.811,3,99,163749,130769,79.0
2026-04-18T20:07:18.851,3,100,163749,130769,79.0
2026-04-18T20:07:18.891,3,101,163749,130769,79.0
2026-04-18T20:07:18.931,3,102,163756,130698,79.0
2026-04-18T20:07:18.972,3,103,163756,130698,79.0
2026-04-18T20:07:19.012,3,104,163756,130698,79.0
2026-04-18T20:07:19.052,3,105,163756,130698,79.0
2026-04-18T20:07:19.092,3,106,163675,130570,79.0
2026-04-18T20:07:19.132,3,107,163675,130570,79.0
2026-04-18T20:07:19.172,3,108,163675,130570,79.0
2026-04-18T20:07:19.211,3,109,163675,130570,79.0
2026-04-18T20:07:19.252,3,110,163433,130130,79.0
2026-04-18T20:07:19.291,3,111,163433,130130,79.0
2026-04-18T20:07:19.331,3,112,163433,130130,79.0
2026-04-18T20:07:19.371,3,113,163433,130130,79.0
2026-04-18T20:07:19.411,3,114,163230,129713,79.0
2026-04-18T20:07:19.451,3,115,163230,129713,79.0
2026-04-18T20:07:19.491,3,116,163230,129713,79.0
2026-04-18T20:07:19.531,3,117,163230,129713,79.0
2026-04-18T20:07:19.571,3,118,163110,129447,79.0
2026-04-18T20:07:19.610,3,119,163110,129447,79.0
2026-04-18T20:07:19.651,3,120,163110,129447,79.0
2026-04-18T20:07:19.691,3,121,163110,129447,79.0
2026-04-18T20:07:19.731,3,122,163316,129891,79.0
2026-04-18T20:07:19.771,3,123,163316,129891,79.0
2026-04-18T20:07:19.811,3,124,163316,129891,79.0
2026-04-18T20:07:19.851,3,125,163316,129891,79.0
2026-04-18T20:07:19.891,3,126,163629,130502,79.0
2026-04-18T20:07:19.931,3,127,163629,130502,79.0
2026-04-18T20:07:19.970,3,128,163629,130502,79.0
2026-04-18T20:07:20.011,3,129,163629,130502,79.0
2026-04-18T20:07:20.050,3,130,163653,130614,79.0
2026-04-18T20:07:20.090,3,131,163653,130614,79.0
2026-04-18T20:07:20.130,3,132,163653,130614,79.0
2026-04-18T20:07:20.170,3,133,163653,130614,79.0
2026-04-18T20:07:20.210,3,134,163557,130384,79.0
2026-04-18T20:07:20.250,3,135,163557,130384,79.0
2026-04-18T20:07:20.290,3,136,163557,130384,79.0
2026-04-18T20:07:20.330,3,137,163557,130384,79.0
2026-04-18T20:07:20.370,3,138,163674,130654,79.0
2026-04-18T20:07:20.410,3,139,163674,130654,79.0
2026-04-18T20:07:20.450,3,140,163674,130654,79.0
2026-04-18T20:07:20.490,3,141,163674,130654,79.0
2026-04-18T20:07:20.530,3,142,163787,130904,79.0
2026-04-18T20:07:20.570,3,143,163787,130904,79.0
2026-04-18T20:07:20.610,3,144,163787,130904,79.0
2026-04-18T20:07:20.650,3,145,163787,130904,79.0
2026-04-18T20:07:20.690,3,146,163935,131159,79.0
2026-04-18T20:07:20.730,3,147,163935,131159,79.0
2026-04-18T20:07:20.770,3,148,163935,131159,79.0
2026-04-18T20:07:20.810,3,149,163935,131159,79.0
2026-04-18T20:07:20.849,3,150,163835,130978,79.0
2026-04-18T20:07:20.890,3,151,163835,130978,79.0
2026-04-18T20:07:20.930,3,152,163835,130978,79.0
2026-04-18T20:07:20.969,3,153,163835,130978,79.0
2026-04-18T20:07:21.009,3,154,163788,130837,79.0
2026-04-18T20:07:21.049,3,155,163788,130837,79.0
2026-04-18T20:07:21.089,3,156,163788,130837,79.0
2026-04-18T20:07:21.129,3,157,163788,130837,79.0
2026-04-18T20:07:21.169,3,158,163970,131103,79.0
2026-04-18T20:07:21.209,3,159,163970,131103,79.0
2026-04-18T20:07:21.249,3,160,163970,131103,79.0
2026-04-18T20:07:21.289,3,161,163970,131103,79.0
2026-04-18T20:07:21.329,3,162,163881,130962,79.0
2026-04-18T20:07:21.369,3,163,163881,130962,79.0
2026-04-18T20:07:21.410,3,164,163881,130962,79.0
2026-04-18T20:07:21.449,3,165,163881,130962,79.0
2026-04-18T20:07:21.489,3,166,163546,130273,79.0
2026-04-18T20:07:21.529,3,167,163546,130273,79.0
2026-04-18T20:07:21.569,3,168,163546,130273,79.0
2026-04-18T20:07:21.609,3,169,163546,130273,79.0
2026-04-18T20:07:21.648,3,170,163313,129847,79.0
2026-04-18T20:07:21.689,3,171,163313,129847,79.0
2026-04-18T20:07:21.729,3,172,163313,129847,79.0
2026-04-18T20:07:21.768,3,173,163313,129847,79.0
2026-04-18T20:07:21.808,3,174,163181,129611,79.0
2026-04-18T20:07:21.848,3,175,163181,129611,79.0
2026-04-18T20:07:21.888,3,176,163181,129611,79.0
2026-04-18T20:07:21.928,3,177,163181,129611,79.0
2026-04-18T20:07:21.968,3,178,163291,129912,79.0
2026-04-18T20:07:22.008,3,179,163291,129912,79.0
2026-04-18T20:07:22.048,3,180,163291,129912,79.0
2026-04-18T20:07:22.088,3,181,163291,129912,79.0
2026-04-18T20:07:22.128,3,182,163419,130198,79.0
2026-04-18T20:07:22.168,3,183,163419,130198,79.0
2026-04-18T20:07:22.208,3,184,163419,130198,79.0
2026-04-18T20:07:22.248,3,185,163419,130198,79.0
2026-04-18T20:07:22.288,3,186,163294,129988,79.0
2026-04-18T20:07:22.328,3,187,163294,129988,79.0
2026-04-18T20:07:22.368,3,188,163294,129988,79.0
2026-04-18T20:07:22.408,3,189,163294,129988,79.0
2026-04-18T20:07:22.448,3,190,163202,129796,79.0
2026-04-18T20:07:22.488,3,191,163202,129796,79.0
2026-04-18T20:07:22.528,3,192,163202,129796,79.0
2026-04-18T20:07:22.567,3,193,163202,129796,79.0
2026-04-18T20:07:22.607,3,194,163384,130160,79.0
2026-04-18T20:07:22.647,3,195,163384,130160,79.0
2026-04-18T20:07:22.687,3,196,163384,130160,79.0
2026-04-18T20:07:22.727,3,197,163384,130160,79.0
2026-04-18T20:07:22.767,3,198,163490,130475,79.0
2026-04-18T20:07:22.807,3,199,163490,130475,79.0
2026-04-18T20:07:22.847,3,200,163490,130475,79.0
2026-04-18T20:07:22.887,3,201,163490,130475,79.0
2026-04-18T20:07:22.927,3,202,163472,130411,79.0
2026-04-18T20:07:22.967,3,203,163472,130411,79.0
2026-04-18T20:07:23.007,3,204,163472,130411,79.0
2026-04-18T20:07:23.047,3,205,163472,130411,79.0
2026-04-18T20:07:23.086,3,206,163372,130203,79.0
2026-04-18T20:07:23.127,3,207,163372,130203,79.0
2026-04-18T20:07:23.167,3,208,163372,130203,79.0
2026-04-18T20:07:23.207,3,209,163372,130203,79.0
2026-04-18T20:07:23.246,3,210,163323,130014,79.0
2026-04-18T20:07:23.286,3,211,163323,130014,79.0
2026-04-18T20:07:23.327,3,212,163323,130014,79.0
2026-04-18T20:07:23.367,3,213,163323,130014,79.0
2026-04-18T20:07:23.406,3,214,163276,129901,79.0
2026-04-18T20:07:23.446,3,215,163276,129901,79.0
2026-04-18T20:07:23.487,3,216,163276,129901,79.0
2026-04-18T20:07:23.526,3,217,163276,129901,79.0
2026-04-18T20:07:23.566,3,218,163164,129766,79.0
2026-04-18T20:07:23.607,3,219,163164,129766,79.0
2026-04-18T20:07:23.646,3,220,163164,129766,79.0
2026-04-18T20:07:23.686,3,221,163164,129766,79.0
2026-04-18T20:07:23.726,3,222,162863,129282,79.0
2026-04-18T20:07:23.767,3,223,162863,129282,79.0
2026-04-18T20:07:23.806,3,224,162863,129282,79.0
2026-04-18T20:07:23.846,3,225,162863,129282,79.0
2026-04-18T20:07:23.886,3,226,162633,128865,79.0
2026-04-18T20:07:23.926,3,227,162633,128865,79.0
2026-04-18T20:07:23.966,3,228,162633,128865,79.0
2026-04-18T20:07:24.006,3,229,162633,128865,79.0
2026-04-18T20:07:24.046,3,230,162446,128657,79.0
2026-04-18T20:07:24.086,3,231,162446,128657,79.0
2026-04-18T20:07:24.125,3,232,162446,128657,79.0
2026-04-18T20:07:24.166,3,233,162446,128657,79.0
2026-04-18T20:07:24.206,3,234,162669,129198,79.0
2026-04-18T20:07:24.246,3,235,162669,129198,79.0
2026-04-18T20:07:24.286,3,236,162669,129198,79.0
2026-04-18T20:07:24.326,3,237,162669,129198,79.0
2026-04-18T20:07:24.366,3,238,162906,129709,79.0
2026-04-18T20:07:24.406,3,239,162906,129709,79.0
2026-04-18T20:07:24.445,3,240,162906,129709,79.0
2026-04-18T20:07:24.485,3,241,162906,129709,79.0
2026-04-18T20:07:24.526,3,242,162872,129687,79.0
2026-04-18T20:07:24.566,3,243,162872,129687,79.0
2026-04-18T20:07:24.605,3,244,162872,129687,79.0
2026-04-18T20:07:24.645,3,245,162872,129687,79.0
2026-04-18T20:07:24.685,3,246,162824,129583,79.0
2026-04-18T20:07:24.726,3,247,162824,129583,79.0
2026-04-18T20:07:24.765,3,248,162824,129583,79.0
2026-04-18T20:07:24.805,3,249,162824,129583,79.0
2026-04-18T20:07:24.845,3,250,162880,129663,79.0
2026-04-18T20:07:37.989,4,0,169584,140130,79.0
2026-04-18T20:07:38.029,4,1,169584,140130,79.0
2026-04-18T20:07:38.069,4,2,169584,140130,79.0
2026-04-18T20:07:38.109,4,3,168617,138014,79.0
2026-04-18T20:07:38.148,4,4,168617,138014,79.0
2026-04-18T20:07:38.189,4,5,168617,138014,79.0
2026-04-18T20:07:38.229,4,6,168617,138014,79.0
2026-04-18T20:07:38.269,4,7,167526,135711,79.0
2026-04-18T20:07:38.309,4,8,167526,135711,79.0
2026-04-18T20:07:38.349,4,9,167526,135711,79.0
2026-04-18T20:07:38.389,4,10,167526,135711,79.0
2026-04-18T20:07:38.429,4,11,167631,135799,79.0
2026-04-18T20:07:38.468,4,12,167631,135799,79.0
2026-04-18T20:07:38.508,4,13,167631,135799,79.0
2026-04-18T20:07:38.548,4,14,167631,135799,79.0
2026-04-18T20:07:38.588,4,15,167610,135661,79.0
2026-04-18T20:07:38.628,4,16,167610,135661,79.0
2026-04-18T20:07:38.668,4,17,167610,135661,79.0
2026-04-18T20:07:38.708,4,18,167610,135661,79.0
2026-04-18T20:07:38.748,4,19,167126,134630,79.0
2026-04-18T20:07:38.788,4,20,167126,134630,79.0
2026-04-18T20:07:38.828,4,21,167126,134630,79.0
2026-04-18T20:07:38.868,4,22,167126,134630,79.0
2026-04-18T20:07:38.908,4,23,166724,133897,79.0
2026-04-18T20:07:38.948,4,24,166724,133897,79.0
2026-04-18T20:07:38.988,4,25,166724,133897,79.0
2026-04-18T20:07:39.028,4,26,166724,133897,79.0
2026-04-18T20:07:39.068,4,27,166251,133041,79.0
2026-04-18T20:07:39.108,4,28,166251,133041,79.0
2026-04-18T20:07:39.148,4,29,166251,133041,79.0
2026-04-18T20:07:39.188,4,30,166251,133041,79.0
2026-04-18T20:07:39.228,4,31,166242,133165,79.0
2026-04-18T20:07:39.268,4,32,166242,133165,79.0
2026-04-18T20:07:39.308,4,33,166242,133165,79.0
2026-04-18T20:07:39.348,4,34,166242,133165,79.0
2026-04-18T20:07:39.387,4,35,165544,132247,79.0
2026-04-18T20:07:39.427,4,36,165544,132247,79.0
2026-04-18T20:07:39.467,4,37,165544,132247,79.0
2026-04-18T20:07:39.508,4,38,165544,132247,79.0
2026-04-18T20:07:39.548,4,39,164149,130911,79.0
2026-04-18T20:07:39.588,4,40,164149,130911,79.0
2026-04-18T20:07:39.627,4,41,164149,130911,79.0
2026-04-18T20:07:39.668,4,42,164149,130911,79.0
2026-04-18T20:07:39.707,4,43,164265,131121,79.0
2026-04-18T20:07:39.747,4,44,164265,131121,79.0
2026-04-18T20:07:39.787,4,45,164265,131121,79.0
2026-04-18T20:07:39.827,4,46,164265,131121,79.0
2026-04-18T20:07:39.867,4,47,164754,131899,79.0
2026-04-18T20:07:39.907,4,48,164754,131899,79.0
2026-04-18T20:07:39.947,4,49,164754,131899,79.0
2026-04-18T20:07:39.987,4,50,164754,131899,79.0
2026-04-18T20:07:40.026,4,51,165225,132710,79.0
2026-04-18T20:07:40.067,4,52,165225,132710,79.0
2026-04-18T20:07:40.107,4,53,165225,132710,79.0
2026-04-18T20:07:40.147,4,54,165225,132710,79.0
2026-04-18T20:07:40.187,4,55,165327,132903,79.0
2026-04-18T20:07:40.226,4,56,165327,132903,79.0
2026-04-18T20:07:40.266,4,57,165327,132903,79.0
2026-04-18T20:07:40.306,4,58,165327,132903,79.0
2026-04-18T20:07:40.347,4,59,165231,132713,79.0
2026-04-18T20:07:40.387,4,60,165231,132713,79.0
2026-04-18T20:07:40.426,4,61,165231,132713,79.0
2026-04-18T20:07:40.466,4,62,165231,132713,79.0
2026-04-18T20:07:40.506,4,63,165297,132759,79.0
2026-04-18T20:07:40.546,4,64,165297,132759,79.0
2026-04-18T20:07:40.586,4,65,165297,132759,79.0
2026-04-18T20:07:40.626,4,66,165297,132759,79.0
2026-04-18T20:07:40.666,4,67,165697,133484,79.0
2026-04-18T20:07:40.706,4,68,165697,133484,79.0
2026-04-18T20:07:40.746,4,69,165697,133484,79.0
2026-04-18T20:07:40.786,4,70,165697,133484,79.0
2026-04-18T20:07:40.826,4,71,165972,133980,79.0
2026-04-18T20:07:40.865,4,72,165972,133980,79.0
2026-04-18T20:07:40.906,4,73,165972,133980,79.0
2026-04-18T20:07:40.945,4,74,165972,133980,79.0
2026-04-18T20:07:40.985,4,75,165744,133503,79.0
2026-04-18T20:07:41.026,4,76,165744,133503,79.0
2026-04-18T20:07:41.065,4,77,165744,133503,79.0
2026-04-18T20:07:41.105,4,78,165744,133503,79.0
2026-04-18T20:07:41.145,4,79,165274,132603,79.0
2026-04-18T20:07:41.186,4,80,165274,132603,79.0
2026-04-18T20:07:41.226,4,81,165274,132603,79.0
2026-04-18T20:07:41.265,4,82,165274,132603,79.0
2026-04-18T20:07:41.305,4,83,165169,132475,79.0
2026-04-18T20:07:41.345,4,84,165169,132475,79.0
2026-04-18T20:07:41.386,4,85,165169,132475,79.0
2026-04-18T20:07:41.425,4,86,165169,132475,79.0
2026-04-18T20:07:41.465,4,87,164810,131996,79.0
2026-04-18T20:07:41.505,4,88,164810,131996,79.0
2026-04-18T20:07:41.545,4,89,164810,131996,79.0
2026-04-18T20:07:41.585,4,90,164810,131996,79.0
2026-04-18T20:07:41.625,4,91,164367,131279,79.0
2026-04-18T20:07:41.665,4,92,164367,131279,79.0
2026-04-18T20:07:41.705,4,93,164367,131279,79.0
2026-04-18T20:07:41.745,4,94,164367,131279,79.0
2026-04-18T20:07:41.785,4,95,164320,131165,79.0
2026-04-18T20:07:41.825,4,96,164320,131165,79.0
2026-04-18T20:07:41.865,4,97,164320,131165,79.0
2026-04-18T20:07:41.904,4,98,164320,131165,79.0
2026-04-18T20:07:41.944,4,99,164780,131849,79.0
2026-04-18T20:07:41.984,4,100,164780,131849,79.0
2026-04-18T20:07:42.025,4,101,164780,131849,79.0
2026-04-18T20:07:42.065,4,102,164780,131849,79.0
2026-04-18T20:07:42.105,4,103,165339,132815,79.0
2026-04-18T20:07:42.145,4,104,165339,132815,79.0
2026-04-18T20:07:42.185,4,105,165339,132815,79.0
2026-04-18T20:07:42.224,4,106,165339,132815,79.0
2026-04-18T20:07:42.264,4,107,165640,133330,79.0
2026-04-18T20:07:42.304,4,108,165640,133330,79.0
2026-04-18T20:07:42.344,4,109,165640,133330,79.0
2026-04-18T20:07:42.384,4,110,165640,133330,79.0
2026-04-18T20:07:42.424,4,111,165792,133592,79.0
2026-04-18T20:07:42.464,4,112,165792,133592,79.0
2026-04-18T20:07:42.504,4,113,165792,133592,79.0
2026-04-18T20:07:42.544,4,114,165792,133592,79.0
2026-04-18T20:07:42.584,4,115,165920,133706,79.0
2026-04-18T20:07:42.624,4,116,165920,133706,79.0
2026-04-18T20:07:42.664,4,117,165920,133706,79.0
2026-04-18T20:07:42.704,4,118,165920,133706,79.0
2026-04-18T20:07:42.744,4,119,165851,133625,79.0
2026-04-18T20:07:42.784,4,120,165851,133625,79.0
2026-04-18T20:07:42.824,4,121,165851,133625,79.0
2026-04-18T20:07:42.863,4,122,165851,133625,79.0
2026-04-18T20:07:42.904,4,123,166004,133913,79.0
2026-04-18T20:07:42.943,4,124,166004,133913,79.0
2026-04-18T20:07:42.984,4,125,166004,133913,79.0
2026-04-18T20:07:43.024,4,126,166004,133913,79.0
2026-04-18T20:07:43.063,4,127,165898,133754,79.0
2026-04-18T20:07:43.103,4,128,165898,133754,79.0
2026-04-18T20:07:43.143,4,129,165898,133754,79.0
2026-04-18T20:07:43.183,4,130,165898,133754,79.0
2026-04-18T20:07:43.223,4,131,165214,132560,79.0
2026-04-18T20:07:43.264,4,132,165214,132560,79.0
2026-04-18T20:07:43.303,4,133,165214,132560,79.0
2026-04-18T20:07:43.343,4,134,165214,132560,79.0
2026-04-18T20:07:43.383,4,135,164855,132026,79.0
2026-04-18T20:07:43.423,4,136,164855,132026,79.0
2026-04-18T20:07:43.463,4,137,164855,132026,79.0
2026-04-18T20:07:43.503,4,138,164855,132026,79.0
2026-04-18T20:07:43.542,4,139,164607,131788,79.0
2026-04-18T20:07:43.583,4,140,164607,131788,79.0
2026-04-18T20:07:43.623,4,141,164607,131788,79.0
2026-04-18T20:07:43.663,4,142,164607,131788,79.0
2026-04-18T20:07:43.703,4,143,164146,131158,79.0
2026-04-18T20:07:43.743,4,144,164146,131158,79.0
2026-04-18T20:07:43.783,4,145,164146,131158,79.0
2026-04-18T20:07:43.823,4,146,164146,131158,79.0
2026-04-18T20:07:43.862,4,147,163973,130827,79.0
2026-04-18T20:07:43.902,4,148,163973,130827,79.0
2026-04-18T20:07:43.943,4,149,163973,130827,79.0
2026-04-18T20:07:43.982,4,150,163973,130827,79.0
2026-04-18T20:07:44.022,4,151,164024,130788,79.0
2026-04-18T20:07:44.062,4,152,164024,130788,79.0
2026-04-18T20:07:44.102,4,153,164024,130788,79.0
2026-04-18T20:07:44.142,4,154,164024,130788,79.0
2026-04-18T20:07:44.182,4,155,164318,131279,79.0
2026-04-18T20:07:44.222,4,156,164318,131279,79.0
2026-04-18T20:07:44.262,4,157,164318,131279,79.0
2026-04-18T20:07:44.302,4,158,164318,131279,79.0
2026-04-18T20:07:44.342,4,159,164923,132254,79.0
2026-04-18T20:07:44.382,4,160,164923,132254,79.0
2026-04-18T20:07:44.422,4,161,164923,132254,79.0
2026-04-18T20:07:44.462,4,162,164923,132254,79.0
2026-04-18T20:07:44.502,4,163,165208,132719,79.0
2026-04-18T20:07:44.542,4,164,165208,132719,79.0
2026-04-18T20:07:44.582,4,165,165208,132719,79.0
2026-04-18T20:07:44.621,4,166,165208,132719,79.0
2026-04-18T20:07:44.662,4,167,165292,132812,79.0
2026-04-18T20:07:44.702,4,168,165292,132812,79.0
2026-04-18T20:07:44.742,4,169,165292,132812,79.0
2026-04-18T20:07:44.782,4,170,165292,132812,79.0
2026-04-18T20:07:44.822,4,171,165583,133265,79.0
2026-04-18T20:07:44.861,4,172,165583,133265,79.0
2026-04-18T20:07:44.902,4,173,165583,133265,79.0
2026-04-18T20:07:44.942,4,174,165583,133265,79.0
2026-04-18T20:07:44.982,4,175,165874,133815,79.0
2026-04-18T20:07:45.021,4,176,165874,133815,79.0
2026-04-18T20:07:45.061,4,177,165874,133815,79.0
2026-04-18T20:07:45.101,4,178,165874,133815,79.0
2026-04-18T20:07:45.141,4,179,165945,133938,79.0
2026-04-18T20:07:45.181,4,180,165945,133938,79.0
2026-04-18T20:07:45.221,4,181,165945,133938,79.0
2026-04-18T20:07:45.261,4,182,165945,133938,79.0
2026-04-18T20:07:45.301,4,183,165895,133850,79.0
2026-04-18T20:07:45.340,4,184,165895,133850,79.0
2026-04-18T20:07:45.380,4,185,165895,133850,79.0
2026-04-18T20:07:45.421,4,186,165895,133850,79.0
2026-04-18T20:07:45.461,4,187,165787,133594,79.0
2026-04-18T20:07:45.500,4,188,165787,133594,79.0
2026-04-18T20:07:45.541,4,189,165787,133594,79.0
2026-04-18T20:07:45.581,4,190,165787,133594,79.0
2026-04-18T20:07:45.621,4,191,165656,133394,79.0
2026-04-18T20:07:45.660,4,192,165656,133394,79.0
2026-04-18T20:07:45.700,4,193,165656,133394,79.0
2026-04-18T20:07:45.740,4,194,165656,133394,79.0
2026-04-18T20:07:45.781,4,195,165187,132752,79.0
2026-04-18T20:07:45.821,4,196,165187,132752,79.0
2026-04-18T20:07:45.860,4,197,165187,132752,79.0
2026-04-18T20:07:45.900,4,198,165187,132752,79.0
2026-04-18T20:07:45.940,4,199,164636,131899,79.0
2026-04-18T20:07:45.981,4,200,164636,131899,79.0
2026-04-18T20:07:46.020,4,201,164636,131899,79.0
2026-04-18T20:07:46.060,4,202,164636,131899,79.0
2026-04-18T20:07:46.100,4,203,164197,131169,79.0
2026-04-18T20:07:46.140,4,204,164197,131169,79.0
2026-04-18T20:07:46.180,4,205,164197,131169,79.0
2026-04-18T20:07:46.220,4,206,164197,131169,79.0
2026-04-18T20:07:46.260,4,207,164405,131467,79.0
2026-04-18T20:07:46.300,4,208,164405,131467,79.0
2026-04-18T20:07:46.340,4,209,164405,131467,79.0
2026-04-18T20:07:46.380,4,210,164405,131467,79.0
2026-04-18T20:07:46.419,4,211,164883,132254,79.0
2026-04-18T20:07:46.461,4,212,164883,132254,79.0
2026-04-18T20:07:46.500,4,213,164883,132254,79.0
2026-04-18T20:07:46.540,4,214,164883,132254,79.0
2026-04-18T20:07:46.580,4,215,165232,132801,79.0
2026-04-18T20:07:46.620,4,216,165232,132801,79.0
2026-04-18T20:07:46.659,4,217,165232,132801,79.0
2026-04-18T20:07:46.700,4,218,165232,132801,79.0
2026-04-18T20:07:46.740,4,219,165335,132927,79.0
2026-04-18T20:07:46.780,4,220,165335,132927,79.0
2026-04-18T20:07:46.819,4,221,165335,132927,79.0
2026-04-18T20:07:46.859,4,222,165335,132927,79.0
2026-04-18T20:07:46.900,4,223,165386,132934,79.0
2026-04-18T20:07:46.939,4,224,165386,132934,79.0
2026-04-18T20:07:46.979,4,225,165386,132934,79.0
2026-04-18T20:07:47.019,4,226,165386,132934,79.0
2026-04-18T20:07:47.060,4,227,165873,133830,79.0
2026-04-18T20:07:47.099,4,228,165873,133830,79.0
2026-04-18T20:07:47.139,4,229,165873,133830,79.0
2026-04-18T20:07:47.179,4,230,165873,133830,79.0
2026-04-18T20:07:47.219,4,231,166132,134310,79.0
2026-04-18T20:07:47.259,4,232,166132,134310,79.0
2026-04-18T20:07:47.299,4,233,166132,134310,79.0
2026-04-18T20:07:47.339,4,234,166132,134310,79.0
2026-04-18T20:07:47.379,4,235,165856,133811,79.0
2026-04-18T20:07:47.419,4,236,165856,133811,79.0
2026-04-18T20:07:47.459,4,237,165856,133811,79.0
2026-04-18T20:07:47.499,4,238,165856,133811,79.0
2026-04-18T20:07:47.538,4,239,165801,133686,79.0
2026-04-18T20:07:47.578,4,240,165801,133686,79.0
2026-04-18T20:07:47.618,4,241,165801,133686,79.0
2026-04-18T20:07:47.658,4,242,165801,133686,79.0
2026-04-18T20:07:47.698,4,243,165992,133911,79.0
2026-04-18T20:07:47.738,4,244,165992,133911,79.0
2026-04-18T20:07:47.778,4,245,165992,133911,79.0
2026-04-18T20:07:47.818,4,246,165992,133911,79.0
2026-04-18T20:07:47.858,4,247,165785,133609,79.0
2026-04-18T20:07:47.899,4,248,165785,133609,79.0
2026-04-18T20:07:47.938,4,249,165785,133609,79.0
2026-04-18T20:07:47.979,4,250,165785,133609,79.0
2026-04-18T20:07:57.088,5,0,169403,139793,83.0
2026-04-18T20:07:57.129,5,1,169903,140773,83.0
2026-04-18T20:07:57.168,5,2,169903,140773,83.0
2026-04-18T20:07:57.208,5,3,169903,140773,83.0
2026-04-18T20:07:57.248,5,4,169903,140773,83.0
2026-04-18T20:07:57.288,5,5,170271,141659,83.0
2026-04-18T20:07:57.328,5,6,170271,141659,83.0
2026-04-18T20:07:57.368,5,7,170271,141659,83.0
2026-04-18T20:07:57.408,5,8,170271,141659,83.0
2026-04-18T20:07:57.448,5,9,170343,141874,83.0
2026-04-18T20:07:57.488,5,10,170343,141874,83.0
2026-04-18T20:07:57.528,5,11,170343,141874,83.0
2026-04-18T20:07:57.567,5,12,170343,141874,83.0
2026-04-18T20:07:57.608,5,13,170470,142223,83.0
2026-04-18T20:07:57.648,5,14,170470,142223,83.0
2026-04-18T20:07:57.687,5,15,170470,142223,83.0
2026-04-18T20:07:57.727,5,16,170470,142223,83.0
2026-04-18T20:07:57.767,5,17,170625,142365,83.0
2026-04-18T20:07:57.808,5,18,170625,142365,83.0
2026-04-18T20:07:57.847,5,19,170625,142365,83.0
2026-04-18T20:07:57.887,5,20,170625,142365,83.0
2026-04-18T20:07:57.927,5,21,171166,143351,83.0
2026-04-18T20:07:57.967,5,22,171166,143351,83.0
2026-04-18T20:07:58.007,5,23,171166,143351,83.0
2026-04-18T20:07:58.047,5,24,171166,143351,83.0
2026-04-18T20:07:58.087,5,25,171397,143525,83.0
2026-04-18T20:07:58.127,5,26,171397,143525,83.0
2026-04-18T20:07:58.167,5,27,171397,143525,83.0
2026-04-18T20:07:58.207,5,28,171397,143525,83.0
2026-04-18T20:07:58.247,5,29,170441,141654,83.0
2026-04-18T20:07:58.287,5,30,170441,141654,83.0
2026-04-18T20:07:58.327,5,31,170441,141654,83.0
2026-04-18T20:07:58.367,5,32,170441,141654,83.0
2026-04-18T20:07:58.407,5,33,169184,139451,83.0
2026-04-18T20:07:58.447,5,34,169184,139451,83.0
2026-04-18T20:07:58.487,5,35,169184,139451,83.0
2026-04-18T20:07:58.526,5,36,169184,139451,83.0
2026-04-18T20:07:58.566,5,37,168385,138110,83.0
2026-04-18T20:07:58.606,5,38,168385,138110,83.0
2026-04-18T20:07:58.646,5,39,168385,138110,83.0
2026-04-18T20:07:58.686,5,40,168385,138110,83.0
2026-04-18T20:07:58.726,5,41,168809,138983,83.0
2026-04-18T20:07:58.766,5,42,168809,138983,83.0
2026-04-18T20:07:58.806,5,43,168809,138983,83.0
2026-04-18T20:07:58.846,5,44,168809,138983,83.0
2026-04-18T20:07:58.886,5,45,169137,139554,83.0
2026-04-18T20:07:58.926,5,46,169137,139554,83.0
2026-04-18T20:07:58.966,5,47,169137,139554,83.0
2026-04-18T20:07:59.006,5,48,169137,139554,83.0
2026-04-18T20:07:59.045,5,49,169361,140037,83.0
2026-04-18T20:07:59.086,5,50,169361,140037,83.0
2026-04-18T20:07:59.126,5,51,169361,140037,83.0
2026-04-18T20:07:59.166,5,52,169361,140037,83.0
2026-04-18T20:07:59.206,5,53,169701,140613,83.0
2026-04-18T20:07:59.246,5,54,169701,140613,83.0
2026-04-18T20:07:59.286,5,55,169701,140613,83.0
2026-04-18T20:07:59.325,5,56,169701,140613,83.0
2026-04-18T20:07:59.365,5,57,170378,142028,83.0
2026-04-18T20:07:59.406,5,58,170378,142028,83.0
2026-04-18T20:07:59.446,5,59,170378,142028,83.0
2026-04-18T20:07:59.485,5,60,170378,142028,83.0
2026-04-18T20:07:59.525,5,61,170879,142985,83.0
2026-04-18T20:07:59.565,5,62,170879,142985,83.0
2026-04-18T20:07:59.606,5,63,170879,142985,83.0
2026-04-18T20:07:59.645,5,64,170879,142985,83.0
2026-04-18T20:07:59.685,5,65,170860,142877,83.0
2026-04-18T20:07:59.725,5,66,170860,142877,83.0
2026-04-18T20:07:59.765,5,67,170860,142877,83.0
2026-04-18T20:07:59.805,5,68,170860,142877,83.0
2026-04-18T20:07:59.845,5,69,170769,142638,83.0
2026-04-18T20:07:59.885,5,70,170769,142638,83.0
2026-04-18T20:07:59.925,5,71,170769,142638,83.0
2026-04-18T20:07:59.964,5,72,170769,142638,83.0
2026-04-18T20:08:00.004,5,73,170974,142948,83.0
2026-04-18T20:08:00.044,5,74,170974,142948,83.0
2026-04-18T20:08:00.084,5,75,170974,142948,83.0
2026-04-18T20:08:00.124,5,76,170974,142948,83.0
2026-04-18T20:08:00.164,5,77,171276,143642,83.0
2026-04-18T20:08:00.204,5,78,171276,143642,83.0
2026-04-18T20:08:00.245,5,79,171276,143642,83.0
2026-04-18T20:08:00.284,5,80,171276,143642,83.0
2026-04-18T20:08:00.324,5,81,171268,143516,83.0
2026-04-18T20:08:00.364,5,82,171268,143516,83.0
2026-04-18T20:08:00.404,5,83,171268,143516,83.0
2026-04-18T20:08:00.444,5,84,171268,143516,83.0
2026-04-18T20:08:00.484,5,85,171137,143083,83.0
2026-04-18T20:08:00.524,5,86,171137,143083,83.0
2026-04-18T20:08:00.564,5,87,171137,143083,83.0
2026-04-18T20:08:00.604,5,88,171137,143083,83.0
2026-04-18T20:08:00.644,5,89,170898,142288,83.0
2026-04-18T20:08:00.683,5,90,170898,142288,83.0
2026-04-18T20:08:00.724,5,91,170898,142288,83.0
2026-04-18T20:08:00.764,5,92,170898,142288,83.0
2026-04-18T20:08:00.804,5,93,170674,141799,83.0
2026-04-18T20:08:00.843,5,94,170674,141799,83.0
2026-04-18T20:08:00.884,5,95,170674,141799,83.0
2026-04-18T20:08:00.923,5,96,170674,141799,83.0
2026-04-18T20:08:00.964,5,97,170123,140914,83.0
2026-04-18T20:08:01.003,5,98,170123,140914,83.0
2026-04-18T20:08:01.043,5,99,170123,140914,83.0
2026-04-18T20:08:01.084,5,100,170123,140914,83.0
2026-04-18T20:08:01.123,5,101,169344,139519,83.0
2026-04-18T20:08:01.163,5,102,169344,139519,83.0
2026-04-18T20:08:01.203,5,103,169344,139519,83.0
2026-04-18T20:08:01.244,5,104,169344,139519,83.0
2026-04-18T20:08:01.283,5,105,168720,138341,83.0
2026-04-18T20:08:01.323,5,106,168720,138341,83.0
2026-04-18T20:08:01.364,5,107,168720,138341,83.0
2026-04-18T20:08:01.403,5,108,168720,138341,83.0
2026-04-18T20:08:01.443,5,109,169109,139013,83.0
2026-04-18T20:08:01.483,5,110,169109,139013,83.0
2026-04-18T20:08:01.523,5,111,169109,139013,83.0
2026-04-18T20:08:01.563,5,112,169109,139013,83.0
2026-04-18T20:08:01.603,5,113,169883,140611,83.0
2026-04-18T20:08:01.643,5,114,169883,140611,83.0
2026-04-18T20:08:01.683,5,115,169883,140611,83.0
2026-04-18T20:08:01.722,5,116,169883,140611,83.0
2026-04-18T20:08:01.762,5,117,170296,141397,83.0
2026-04-18T20:08:01.803,5,118,170296,141397,83.0
2026-04-18T20:08:01.842,5,119,170296,141397,83.0
2026-04-18T20:08:01.882,5,120,170296,141397,83.0
2026-04-18T20:08:01.922,5,121,170367,141521,83.0
2026-04-18T20:08:01.962,5,122,170367,141521,83.0
2026-04-18T20:08:02.002,5,123,170367,141521,83.0
2026-04-18T20:08:02.042,5,124,170367,141521,83.0
2026-04-18T20:08:02.082,5,125,170460,141575,83.0
2026-04-18T20:08:02.122,5,126,170460,141575,83.0
2026-04-18T20:08:02.162,5,127,170460,141575,83.0
2026-04-18T20:08:02.202,5,128,170460,141575,83.0
2026-04-18T20:08:02.242,5,129,170813,142273,83.0
2026-04-18T20:08:02.281,5,130,170813,142273,83.0
2026-04-18T20:08:02.322,5,131,170813,142273,83.0
2026-04-18T20:08:02.362,5,132,170813,142273,83.0
2026-04-18T20:08:02.402,5,133,171076,142811,83.0
2026-04-18T20:08:02.442,5,134,171076,142811,83.0
2026-04-18T20:08:02.482,5,135,171076,142811,83.0
2026-04-18T20:08:02.522,5,136,171076,142811,83.0
2026-04-18T20:08:02.562,5,137,170913,142490,83.0
2026-04-18T20:08:02.601,5,138,170913,142490,83.0
2026-04-18T20:08:02.641,5,139,170913,142490,83.0
2026-04-18T20:08:02.682,5,140,170913,142490,83.0
2026-04-18T20:08:02.721,5,141,170836,142342,83.0
2026-04-18T20:08:02.761,5,142,170836,142342,83.0
2026-04-18T20:08:02.801,5,143,170836,142342,83.0
2026-04-18T20:08:02.841,5,144,170836,142342,83.0
2026-04-18T20:08:02.881,5,145,170898,142348,83.0
2026-04-18T20:08:02.921,5,146,170898,142348,83.0
2026-04-18T20:08:02.961,5,147,170898,142348,83.0
2026-04-18T20:08:03.001,5,148,170898,142348,83.0
2026-04-18T20:08:03.041,5,149,171164,142954,83.0
2026-04-18T20:08:03.080,5,150,171164,142954,83.0
2026-04-18T20:08:03.120,5,151,171164,142954,83.0
2026-04-18T20:08:03.161,5,152,171164,142954,83.0
2026-04-18T20:08:03.201,5,153,171288,143252,83.0
2026-04-18T20:08:03.241,5,154,171288,143252,83.0
2026-04-18T20:08:03.280,5,155,171288,143252,83.0
2026-04-18T20:08:03.320,5,156,171288,143252,83.0
2026-04-18T20:08:03.361,5,157,171192,143046,83.0
2026-04-18T20:08:03.401,5,158,171192,143046,83.0
2026-04-18T20:08:03.441,5,159,171192,143046,83.0
2026-04-18T20:08:03.481,5,160,171192,143046,83.0
2026-04-18T20:08:03.520,5,161,170986,142449,83.0
2026-04-18T20:08:03.560,5,162,170986,142449,83.0
2026-04-18T20:08:03.600,5,163,170986,142449,83.0
2026-04-18T20:08:03.640,5,164,170986,142449,83.0
2026-04-18T20:08:03.680,5,165,170785,141891,83.0
2026-04-18T20:08:03.720,5,166,170785,141891,83.0
2026-04-18T20:08:03.760,5,167,170785,141891,83.0
2026-04-18T20:08:03.800,5,168,170785,141891,83.0
2026-04-18T20:08:03.839,5,169,170552,141553,83.0
2026-04-18T20:08:03.880,5,170,170552,141553,83.0
2026-04-18T20:08:03.920,5,171,170552,141553,83.0
2026-04-18T20:08:03.960,5,172,170552,141553,83.0
2026-04-18T20:08:04.000,5,173,170037,140720,83.0
2026-04-18T20:08:04.040,5,174,170037,140720,83.0
2026-04-18T20:08:04.080,5,175,170037,140720,83.0
2026-04-18T20:08:04.119,5,176,170037,140720,83.0
2026-04-18T20:08:04.159,5,177,169336,139419,83.0
2026-04-18T20:08:04.200,5,178,169336,139419,83.0
2026-04-18T20:08:04.239,5,179,169336,139419,83.0
2026-04-18T20:08:04.279,5,180,169336,139419,83.0
2026-04-18T20:08:04.319,5,181,168921,138558,83.0
2026-04-18T20:08:04.359,5,182,168921,138558,83.0
2026-04-18T20:08:04.400,5,183,168921,138558,83.0
2026-04-18T20:08:04.439,5,184,168921,138558,83.0
2026-04-18T20:08:04.479,5,185,169697,139947,83.0
2026-04-18T20:08:04.519,5,186,169697,139947,83.0
2026-04-18T20:08:04.559,5,187,169697,139947,83.0
2026-04-18T20:08:04.599,5,188,169697,139947,83.0
2026-04-18T20:08:04.639,5,189,170458,141531,83.0
2026-04-18T20:08:04.679,5,190,170458,141531,83.0
2026-04-18T20:08:04.719,5,191,170458,141531,83.0
2026-04-18T20:08:04.759,5,192,170458,141531,83.0
2026-04-18T20:08:04.798,5,193,170712,142045,83.0
2026-04-18T20:08:04.838,5,194,170712,142045,83.0
2026-04-18T20:08:04.878,5,195,170712,142045,83.0
2026-04-18T20:08:04.918,5,196,170712,142045,83.0
2026-04-18T20:08:04.958,5,197,170661,141973,83.0
2026-04-18T20:08:04.998,5,198,170661,141973,83.0
2026-04-18T20:08:05.038,5,199,170661,141973,83.0
2026-04-18T20:08:05.078,5,200,170661,141973,83.0
2026-04-18T20:08:05.118,5,201,170776,142121,83.0
2026-04-18T20:08:05.158,5,202,170776,142121,83.0
2026-04-18T20:08:05.198,5,203,170776,142121,83.0
2026-04-18T20:08:05.238,5,204,170776,142121,83.0
2026-04-18T20:08:05.278,5,205,171169,143112,83.0
2026-04-18T20:08:05.317,5,206,171169,143112,83.0
2026-04-18T20:08:05.358,5,207,171169,143112,83.0
2026-04-18T20:08:05.398,5,208,171169,143112,83.0
2026-04-18T20:08:05.438,5,209,171272,143440,83.0
2026-04-18T20:08:05.478,5,210,171272,143440,83.0
2026-04-18T20:08:05.518,5,211,171272,143440,83.0
2026-04-18T20:08:05.558,5,212,171272,143440,83.0
2026-04-18T20:08:05.598,5,213,171029,142850,83.0
2026-04-18T20:08:05.638,5,214,171029,142850,83.0
2026-04-18T20:08:05.678,5,215,171029,142850,83.0
2026-04-18T20:08:05.718,5,216,171029,142850,83.0
2026-04-18T20:08:05.758,5,217,170864,142455,83.0
2026-04-18T20:08:05.797,5,218,170864,142455,83.0
2026-04-18T20:08:05.837,5,219,170864,142455,83.0
2026-04-18T20:08:05.877,5,220,170864,142455,83.0
2026-04-18T20:08:05.917,5,221,170857,142229,83.0
2026-04-18T20:08:05.957,5,222,170857,142229,83.0
2026-04-18T20:08:05.997,5,223,170857,142229,83.0
2026-04-18T20:08:06.037,5,224,170857,142229,83.0
2026-04-18T20:08:06.077,5,225,171203,142877,83.0
2026-04-18T20:08:06.117,5,226,171203,142877,83.0
2026-04-18T20:08:06.157,5,227,171203,142877,83.0
2026-04-18T20:08:06.197,5,228,171203,142877,83.0
2026-04-18T20:08:06.237,5,229,170803,142211,83.0
2026-04-18T20:08:06.277,5,230,170803,142211,83.0
2026-04-18T20:08:06.317,5,231,170803,142211,83.0
2026-04-18T20:08:06.357,5,232,170803,142211,83.0
2026-04-18T20:08:06.396,5,233,170089,140834,83.0
2026-04-18T20:08:06.437,5,234,170089,140834,83.0
2026-04-18T20:08:06.476,5,235,170089,140834,83.0
2026-04-18T20:08:06.516,5,236,170089,140834,83.0
2026-04-18T20:08:06.556,5,237,169392,139520,83.0
2026-04-18T20:08:06.596,5,238,169392,139520,83.0
2026-04-18T20:08:06.636,5,239,169392,139520,83.0
2026-04-18T20:08:06.676,5,240,169392,139520,83.0
2026-04-18T20:08:06.717,5,241,168984,138645,83.0
2026-04-18T20:08:06.757,5,242,168984,138645,83.0
2026-04-18T20:08:06.797,5,243,168984,138645,83.0
2026-04-18T20:08:06.836,5,244,168984,138645,83.0
2026-04-18T20:08:06.876,5,245,169278,139254,83.0
2026-04-18T20:08:06.916,5,246,169278,139254,83.0
2026-04-18T20:08:06.956,5,247,169278,139254,83.0
2026-04-18T20:08:06.995,5,248,169278,139254,83.0
2026-04-18T20:08:07.036,5,249,169851,140428,83.0
2026-04-18T20:08:07.076,5,250,169851,140428,83.0
2026-04-18T20:08:10.631,6,0,172171,144264,77.0
2026-04-18T20:08:10.671,6,1,172171,144264,77.0
2026-04-18T20:08:10.711,6,2,172628,144821,77.0
2026-04-18T20:08:10.752,6,3,172628,144821,77.0
2026-04-18T20:08:10.791,6,4,172628,144821,77.0
2026-04-18T20:08:10.831,6,5,172628,144821,77.0
2026-04-18T20:08:10.871,6,6,172427,144387,77.0
2026-04-18T20:08:10.911,6,7,172427,144387,77.0
2026-04-18T20:08:10.952,6,8,172427,144387,77.0
2026-04-18T20:08:10.992,6,9,172427,144387,77.0
2026-04-18T20:08:11.031,6,10,171504,142615,77.0
2026-04-18T20:08:11.071,6,11,171504,142615,77.0
2026-04-18T20:08:11.111,6,12,171504,142615,77.0
2026-04-18T20:08:11.151,6,13,171504,142615,77.0
2026-04-18T20:08:11.191,6,14,170766,141315,77.0
2026-04-18T20:08:11.231,6,15,170766,141315,77.0
2026-04-18T20:08:11.271,6,16,170766,141315,77.0
2026-04-18T20:08:11.311,6,17,170766,141315,77.0
2026-04-18T20:08:11.351,6,18,170436,140537,77.0
2026-04-18T20:08:11.391,6,19,170436,140537,77.0
2026-04-18T20:08:11.430,6,20,170436,140537,77.0
2026-04-18T20:08:11.471,6,21,170436,140537,77.0
2026-04-18T20:08:11.510,6,22,170801,141271,77.0
2026-04-18T20:08:11.551,6,23,170801,141271,77.0
2026-04-18T20:08:11.591,6,24,170801,141271,77.0
2026-04-18T20:08:11.630,6,25,170801,141271,77.0
2026-04-18T20:08:11.670,6,26,171511,142570,77.0
2026-04-18T20:08:11.711,6,27,171511,142570,77.0
2026-04-18T20:08:11.750,6,28,171511,142570,77.0
2026-04-18T20:08:11.791,6,29,171511,142570,77.0
2026-04-18T20:08:11.831,6,30,171931,143257,77.0
2026-04-18T20:08:11.870,6,31,171931,143257,77.0
2026-04-18T20:08:11.910,6,32,171931,143257,77.0
2026-04-18T20:08:11.950,6,33,171931,143257,77.0
2026-04-18T20:08:11.990,6,34,172102,143537,77.0
2026-04-18T20:08:12.030,6,35,172102,143537,77.0
2026-04-18T20:08:12.070,6,36,172102,143537,77.0
2026-04-18T20:08:12.110,6,37,172102,143537,77.0
2026-04-18T20:08:12.150,6,38,172443,144037,77.0
2026-04-18T20:08:12.190,6,39,172443,144037,77.0
2026-04-18T20:08:12.230,6,40,172443,144037,77.0
2026-04-18T20:08:12.270,6,41,172443,144037,77.0
2026-04-18T20:08:12.310,6,42,173157,145627,77.0
2026-04-18T20:08:12.349,6,43,173157,145627,77.0
2026-04-18T20:08:12.390,6,44,173157,145627,77.0
2026-04-18T20:08:12.430,6,45,173157,145627,77.0
2026-04-18T20:08:12.470,6,46,173472,146373,77.0
2026-04-18T20:08:12.510,6,47,173472,146373,77.0
2026-04-18T20:08:12.550,6,48,173472,146373,77.0
2026-04-18T20:08:12.590,6,49,173472,146373,77.0
2026-04-18T20:08:12.630,6,50,173539,146588,77.0
2026-04-18T20:08:12.669,6,51,173539,146588,77.0
2026-04-18T20:08:12.709,6,52,173539,146588,77.0
2026-04-18T20:08:12.749,6,53,173539,146588,77.0
2026-04-18T20:08:12.789,6,54,173408,146229,77.0
2026-04-18T20:08:12.829,6,55,173408,146229,77.0
2026-04-18T20:08:12.869,6,56,173408,146229,77.0
2026-04-18T20:08:12.909,6,57,173408,146229,77.0
2026-04-18T20:08:12.949,6,58,173510,146359,77.0
2026-04-18T20:08:12.989,6,59,173510,146359,77.0
2026-04-18T20:08:13.029,6,60,173510,146359,77.0
2026-04-18T20:08:13.069,6,61,173510,146359,77.0
2026-04-18T20:08:13.109,6,62,173407,146197,77.0
2026-04-18T20:08:13.148,6,63,173407,146197,77.0
2026-04-18T20:08:13.188,6,64,173407,146197,77.0
2026-04-18T20:08:13.229,6,65,173407,146197,77.0
2026-04-18T20:08:13.268,6,66,172756,144839,77.0
2026-04-18T20:08:13.309,6,67,172756,144839,77.0
2026-04-18T20:08:13.348,6,68,172756,144839,77.0
2026-04-18T20:08:13.388,6,69,172756,144839,77.0
2026-04-18T20:08:13.428,6,70,171963,143265,77.0
2026-04-18T20:08:13.468,6,71,171963,143265,77.0
2026-04-18T20:08:13.508,6,72,171963,143265,77.0
2026-04-18T20:08:13.549,6,73,171963,143265,77.0
2026-04-18T20:08:13.588,6,74,171267,141751,77.0
2026-04-18T20:08:13.628,6,75,171267,141751,77.0
2026-04-18T20:08:13.668,6,76,171267,141751,77.0
2026-04-18T20:08:13.708,6,77,171267,141751,77.0
2026-04-18T20:08:13.748,6,78,171419,142020,77.0
2026-04-18T20:08:13.788,6,79,171419,142020,77.0
2026-04-18T20:08:13.828,6,80,171419,142020,77.0
2026-04-18T20:08:13.868,6,81,171419,142020,77.0
2026-04-18T20:08:13.908,6,82,171748,142837,77.0
2026-04-18T20:08:13.948,6,83,171748,142837,77.0
2026-04-18T20:08:13.987,6,84,171748,142837,77.0
2026-04-18T20:08:14.028,6,85,171748,142837,77.0
2026-04-18T20:08:14.068,6,86,172029,143373,77.0
2026-04-18T20:08:14.107,6,87,172029,143373,77.0
2026-04-18T20:08:14.147,6,88,172029,143373,77.0
2026-04-18T20:08:14.187,6,89,172029,143373,77.0
2026-04-18T20:08:14.227,6,90,172172,143609,77.0
2026-04-18T20:08:14.268,6,91,172172,143609,77.0
2026-04-18T20:08:14.307,6,92,172172,143609,77.0
2026-04-18T20:08:14.348,6,93,172172,143609,77.0
2026-04-18T20:08:14.387,6,94,172251,143585,77.0
2026-04-18T20:08:14.427,6,95,172251,143585,77.0
2026-04-18T20:08:14.467,6,96,172251,143585,77.0
2026-04-18T20:08:14.507,6,97,172251,143585,77.0
2026-04-18T20:08:14.547,6,98,172740,144605,77.0
2026-04-18T20:08:14.587,6,99,172740,144605,77.0
2026-04-18T20:08:14.627,6,100,172740,144605,77.0
2026-04-18T20:08:14.667,6,101,172740,144605,77.0
2026-04-18T20:08:14.707,6,102,173015,145302,77.0
2026-04-18T20:08:14.747,6,103,173015,145302,77.0
2026-04-18T20:08:14.787,6,104,173015,145302,77.0
2026-04-18T20:08:14.827,6,105,173015,145302,77.0
2026-04-18T20:08:14.867,6,106,172805,144866,77.0
2026-04-18T20:08:14.907,6,107,172805,144866,77.0
2026-04-18T20:08:14.946,6,108,172805,144866,77.0
2026-04-18T20:08:14.987,6,109,172805,144866,77.0
2026-04-18T20:08:15.026,6,110,172758,144823,77.0
2026-04-18T20:08:15.066,6,111,172758,144823,77.0
2026-04-18T20:08:15.106,6,112,172758,144823,77.0
2026-04-18T20:08:15.146,6,113,172758,144823,77.0
2026-04-18T20:08:15.186,6,114,172821,144760,77.0
2026-04-18T20:08:15.226,6,115,172821,144760,77.0
2026-04-18T20:08:15.266,6,116,172821,144760,77.0
2026-04-18T20:08:15.306,6,117,172821,144760,77.0
2026-04-18T20:08:15.346,6,118,172953,145053,77.0
2026-04-18T20:08:15.386,6,119,172953,145053,77.0
2026-04-18T20:08:15.426,6,120,172953,145053,77.0
2026-04-18T20:08:15.466,6,121,172953,145053,77.0
2026-04-18T20:08:15.506,6,122,172518,144311,77.0
2026-04-18T20:08:15.546,6,123,172518,144311,77.0
2026-04-18T20:08:15.586,6,124,172518,144311,77.0
2026-04-18T20:08:15.626,6,125,172518,144311,77.0
2026-04-18T20:08:15.666,6,126,171802,142927,77.0
2026-04-18T20:08:15.706,6,127,171802,142927,77.0
2026-04-18T20:08:15.746,6,128,171802,142927,77.0
2026-04-18T20:08:15.785,6,129,171802,142927,77.0
2026-04-18T20:08:15.825,6,130,171284,141878,77.0
2026-04-18T20:08:15.865,6,131,171284,141878,77.0
2026-04-18T20:08:15.905,6,132,171284,141878,77.0
2026-04-18T20:08:15.945,6,133,171284,141878,77.0
2026-04-18T20:08:15.985,6,134,171076,141379,77.0
2026-04-18T20:08:16.025,6,135,171076,141379,77.0
2026-04-18T20:08:16.065,6,136,171076,141379,77.0
2026-04-18T20:08:16.105,6,137,171076,141379,77.0
2026-04-18T20:08:16.145,6,138,171766,142876,77.0
2026-04-18T20:08:16.185,6,139,171766,142876,77.0
2026-04-18T20:08:16.226,6,140,171766,142876,77.0
2026-04-18T20:08:16.265,6,141,171766,142876,77.0
2026-04-18T20:08:16.305,6,142,172295,143961,77.0
2026-04-18T20:08:16.344,6,143,172295,143961,77.0
2026-04-18T20:08:16.385,6,144,172295,143961,77.0
2026-04-18T20:08:16.425,6,145,172295,143961,77.0
2026-04-18T20:08:16.465,6,146,172416,144200,77.0
2026-04-18T20:08:16.504,6,147,172416,144200,77.0
2026-04-18T20:08:16.545,6,148,172416,144200,77.0
2026-04-18T20:08:16.585,6,149,172416,144200,77.0
2026-04-18T20:08:16.625,6,150,172332,144177,77.0
2026-04-18T20:08:16.664,6,151,172332,144177,77.0
2026-04-18T20:08:16.705,6,152,172332,144177,77.0
2026-04-18T20:08:16.745,6,153,172332,144177,77.0
2026-04-18T20:08:16.784,6,154,172518,144496,77.0
2026-04-18T20:08:16.824,6,155,172518,144496,77.0
2026-04-18T20:08:16.864,6,156,172518,144496,77.0
2026-04-18T20:08:16.904,6,157,172518,144496,77.0
2026-04-18T20:08:16.944,6,158,172833,145342,77.0
2026-04-18T20:08:16.984,6,159,172833,145342,77.0
2026-04-18T20:08:17.024,6,160,172833,145342,77.0
2026-04-18T20:08:17.064,6,161,172833,145342,77.0
2026-04-18T20:08:17.104,6,162,173040,145798,77.0
2026-04-18T20:08:17.144,6,163,173040,145798,77.0
2026-04-18T20:08:17.184,6,164,173040,145798,77.0
2026-04-18T20:08:17.223,6,165,173040,145798,77.0
2026-04-18T20:08:17.264,6,166,172944,145600,77.0
2026-04-18T20:08:17.303,6,167,172944,145600,77.0
2026-04-18T20:08:17.344,6,168,172944,145600,77.0
2026-04-18T20:08:17.384,6,169,172944,145600,77.0
2026-04-18T20:08:17.423,6,170,172854,145286,77.0
2026-04-18T20:08:17.463,6,171,172854,145286,77.0
2026-04-18T20:08:17.503,6,172,172854,145286,77.0
2026-04-18T20:08:17.544,6,173,172854,145286,77.0
2026-04-18T20:08:17.584,6,174,172908,145166,77.0
2026-04-18T20:08:17.624,6,175,172908,145166,77.0
2026-04-18T20:08:17.664,6,176,172908,145166,77.0
2026-04-18T20:08:17.704,6,177,172908,145166,77.0
2026-04-18T20:08:17.743,6,178,172744,144898,77.0
2026-04-18T20:08:17.784,6,179,172744,144898,77.0
2026-04-18T20:08:17.823,6,180,172744,144898,77.0
2026-04-18T20:08:17.863,6,181,172744,144898,77.0
2026-04-18T20:08:17.903,6,182,172091,143682,77.0
2026-04-18T20:08:17.943,6,183,172091,143682,77.0
2026-04-18T20:08:17.983,6,184,172091,143682,77.0
2026-04-18T20:08:18.023,6,185,172091,143682,77.0
2026-04-18T20:08:18.063,6,186,171386,142284,77.0
2026-04-18T20:08:18.103,6,187,171386,142284,77.0
2026-04-18T20:08:18.143,6,188,171386,142284,77.0
2026-04-18T20:08:18.183,6,189,171386,142284,77.0
2026-04-18T20:08:18.223,6,190,170737,140958,77.0
2026-04-18T20:08:18.263,6,191,170737,140958,77.0
2026-04-18T20:08:18.303,6,192,170737,140958,77.0
2026-04-18T20:08:18.343,6,193,170737,140958,77.0
2026-04-18T20:08:18.383,6,194,171301,141961,77.0
2026-04-18T20:08:18.422,6,195,171301,141961,77.0
2026-04-18T20:08:18.463,6,196,171301,141961,77.0
2026-04-18T20:08:18.503,6,197,171301,141961,77.0
2026-04-18T20:08:18.542,6,198,171624,142794,77.0
2026-04-18T20:08:18.582,6,199,171624,142794,77.0
2026-04-18T20:08:18.622,6,200,171624,142794,77.0
2026-04-18T20:08:18.662,6,201,171624,142794,77.0
2026-04-18T20:08:18.702,6,202,172049,143720,77.0
2026-04-18T20:08:18.742,6,203,172049,143720,77.0
2026-04-18T20:08:18.782,6,204,172049,143720,77.0
2026-04-18T20:08:18.822,6,205,172049,143720,77.0
2026-04-18T20:08:18.862,6,206,172251,144092,77.0
2026-04-18T20:08:18.902,6,207,172251,144092,77.0
2026-04-18T20:08:18.942,6,208,172251,144092,77.0
2026-04-18T20:08:18.982,6,209,172251,144092,77.0
2026-04-18T20:08:19.022,6,210,172309,144063,77.0
2026-04-18T20:08:19.062,6,211,172309,144063,77.0
2026-04-18T20:08:19.102,6,212,172309,144063,77.0
2026-04-18T20:08:19.142,6,213,172309,144063,77.0
2026-04-18T20:08:19.182,6,214,172705,144831,77.0
2026-04-18T20:08:19.222,6,215,172705,144831,77.0
2026-04-18T20:08:19.262,6,216,172705,144831,77.0
2026-04-18T20:08:19.302,6,217,172705,144831,77.0
2026-04-18T20:08:19.341,6,218,172975,145560,77.0
2026-04-18T20:08:19.381,6,219,172975,145560,77.0
2026-04-18T20:08:19.422,6,220,172975,145560,77.0
2026-04-18T20:08:19.461,6,221,172975,145560,77.0
2026-04-18T20:08:19.502,6,222,172971,145548,77.0
2026-04-18T20:08:19.541,6,223,172971,145548,77.0
2026-04-18T20:08:19.581,6,224,172971,145548,77.0
2026-04-18T20:08:19.622,6,225,172971,145548,77.0
2026-04-18T20:08:19.661,6,226,172934,145412,77.0
2026-04-18T20:08:19.702,6,227,172934,145412,77.0
2026-04-18T20:08:19.742,6,228,172934,145412,77.0
2026-04-18T20:08:19.781,6,229,172934,145412,77.0
2026-04-18T20:08:19.821,6,230,172630,144592,77.0
2026-04-18T20:08:19.861,6,231,172630,144592,77.0
2026-04-18T20:08:19.901,6,232,172630,144592,77.0
2026-04-18T20:08:19.941,6,233,172630,144592,77.0
2026-04-18T20:08:19.980,6,234,172584,144498,77.0
2026-04-18T20:08:20.021,6,235,172584,144498,77.0
2026-04-18T20:08:20.061,6,236,172584,144498,77.0
2026-04-18T20:08:20.100,6,237,172584,144498,77.0
2026-04-18T20:08:20.141,6,238,172134,143752,77.0
2026-04-18T20:08:20.181,6,239,172134,143752,77.0
2026-04-18T20:08:20.221,6,240,172134,143752,77.0
2026-04-18T20:08:20.261,6,241,172134,143752,77.0
2026-04-18T20:08:20.301,6,242,171407,142323,77.0
2026-04-18T20:08:20.341,6,243,171407,142323,77.0
2026-04-18T20:08:20.381,6,244,171407,142323,77.0
2026-04-18T20:08:20.421,6,245,171407,142323,77.0
2026-04-18T20:08:20.460,6,246,171105,141734,77.0
2026-04-18T20:08:20.500,6,247,171105,141734,77.0
2026-04-18T20:08:20.540,6,248,171105,141734,77.0
2026-04-18T20:08:20.580,6,249,171105,141734,77.0
2026-04-18T20:08:20.620,6,250,171482,142320,77.0
2026-04-18T20:08:20.660,6,251,171482,142320,77.0
2026-04-18T20:08:25.494,7,0,172974,146586,79.0
2026-04-18T20:08:25.534,7,1,172974,146586,79.0
2026-04-18T20:08:25.574,7,2,173366,147063,79.0
2026-04-18T20:08:25.614,7,3,173366,147063,79.0
2026-04-18T20:08:25.654,7,4,173366,147063,79.0
2026-04-18T20:08:25.693,7,5,173366,147063,79.0
2026-04-18T20:08:25.734,7,6,173736,147050,79.0
2026-04-18T20:08:25.774,7,7,173736,147050,79.0
2026-04-18T20:08:25.814,7,8,173736,147050,79.0
2026-04-18T20:08:25.854,7,9,173736,147050,79.0
2026-04-18T20:08:25.894,7,10,174379,148266,79.0
2026-04-18T20:08:25.934,7,11,174379,148266,79.0
2026-04-18T20:08:25.975,7,12,174379,148266,79.0
2026-04-18T20:08:26.014,7,13,174379,148266,79.0
2026-04-18T20:08:26.054,7,14,175152,150288,79.0
2026-04-18T20:08:26.094,7,15,175152,150288,79.0
2026-04-18T20:08:26.134,7,16,175152,150288,79.0
2026-04-18T20:08:26.173,7,17,175152,150288,79.0
2026-04-18T20:08:26.213,7,18,175277,150850,79.0
2026-04-18T20:08:26.253,7,19,175277,150850,79.0
2026-04-18T20:08:26.293,7,20,175277,150850,79.0
2026-04-18T20:08:26.333,7,21,175277,150850,79.0
2026-04-18T20:08:26.373,7,22,174580,148834,79.0
2026-04-18T20:08:26.413,7,23,174580,148834,79.0
2026-04-18T20:08:26.453,7,24,174580,148834,79.0
2026-04-18T20:08:26.493,7,25,174580,148834,79.0
2026-04-18T20:08:26.533,7,26,173972,147329,79.0
2026-04-18T20:08:26.573,7,27,173972,147329,79.0
2026-04-18T20:08:26.613,7,28,173972,147329,79.0
2026-04-18T20:08:26.653,7,29,173972,147329,79.0
2026-04-18T20:08:26.692,7,30,173288,145722,79.0
2026-04-18T20:08:26.732,7,31,173288,145722,79.0
2026-04-18T20:08:26.772,7,32,173288,145722,79.0
2026-04-18T20:08:26.813,7,33,173288,145722,79.0
2026-04-18T20:08:26.852,7,34,172848,145057,79.0
2026-04-18T20:08:26.893,7,35,172848,145057,79.0
2026-04-18T20:08:26.933,7,36,172848,145057,79.0
2026-04-18T20:08:26.973,7,37,172848,145057,79.0
2026-04-18T20:08:27.013,7,38,172453,144475,79.0
2026-04-18T20:08:27.052,7,39,172453,144475,79.0
2026-04-18T20:08:27.092,7,40,172453,144475,79.0
2026-04-18T20:08:27.132,7,41,172453,144475,79.0
2026-04-18T20:08:27.172,7,42,172382,144272,79.0
2026-04-18T20:08:27.212,7,43,172382,144272,79.0
2026-04-18T20:08:27.252,7,44,172382,144272,79.0
2026-04-18T20:08:27.292,7,45,172382,144272,79.0
2026-04-18T20:08:27.332,7,46,172764,144485,79.0
2026-04-18T20:08:27.371,7,47,172764,144485,79.0
2026-04-18T20:08:27.411,7,48,172764,144485,79.0
2026-04-18T20:08:27.452,7,49,172764,144485,79.0
2026-04-18T20:08:27.492,7,50,173844,146709,79.0
2026-04-18T20:08:27.532,7,51,173844,146709,79.0
2026-04-18T20:08:27.571,7,52,173844,146709,79.0
2026-04-18T20:08:27.611,7,53,173844,146709,79.0
2026-04-18T20:08:27.652,7,54,174406,148229,79.0
2026-04-18T20:08:27.692,7,55,174406,148229,79.0
2026-04-18T20:08:27.732,7,56,174406,148229,79.0
2026-04-18T20:08:27.771,7,57,174406,148229,79.0
2026-04-18T20:08:27.811,7,58,174520,148546,79.0
2026-04-18T20:08:27.851,7,59,174520,148546,79.0
2026-04-18T20:08:27.892,7,60,174520,148546,79.0
2026-04-18T20:08:27.931,7,61,174520,148546,79.0
2026-04-18T20:08:27.971,7,62,174672,148852,79.0
2026-04-18T20:08:28.011,7,63,174672,148852,79.0
2026-04-18T20:08:28.051,7,64,174672,148852,79.0
2026-04-18T20:08:28.091,7,65,174672,148852,79.0
2026-04-18T20:08:28.131,7,66,174848,149070,79.0
2026-04-18T20:08:28.171,7,67,174848,149070,79.0
2026-04-18T20:08:28.210,7,68,174848,149070,79.0
2026-04-18T20:08:28.251,7,69,174848,149070,79.0
2026-04-18T20:08:28.291,7,70,175096,149804,79.0
2026-04-18T20:08:28.330,7,71,175096,149804,79.0
2026-04-18T20:08:28.371,7,72,175096,149804,79.0
2026-04-18T20:08:28.410,7,73,175096,149804,79.0
2026-04-18T20:08:28.451,7,74,175157,150106,79.0
2026-04-18T20:08:28.490,7,75,175157,150106,79.0
2026-04-18T20:08:28.530,7,76,175157,150106,79.0
2026-04-18T20:08:28.571,7,77,175157,150106,79.0
2026-04-18T20:08:28.610,7,78,175110,150038,79.0
2026-04-18T20:08:28.650,7,79,175110,150038,79.0
2026-04-18T20:08:28.690,7,80,175110,150038,79.0
2026-04-18T20:08:28.730,7,81,175110,150038,79.0
2026-04-18T20:08:28.770,7,82,175043,149881,79.0
2026-04-18T20:08:28.810,7,83,175043,149881,79.0
2026-04-18T20:08:28.850,7,84,175043,149881,79.0
2026-04-18T20:08:28.890,7,85,175043,149881,79.0
2026-04-18T20:08:28.930,7,86,174905,149164,79.0
2026-04-18T20:08:28.970,7,87,174905,149164,79.0
2026-04-18T20:08:29.010,7,88,174905,149164,79.0
2026-04-18T20:08:29.050,7,89,174905,149164,79.0
2026-04-18T20:08:29.090,7,90,174525,148286,79.0
2026-04-18T20:08:29.129,7,91,174525,148286,79.0
2026-04-18T20:08:29.170,7,92,174525,148286,79.0
2026-04-18T20:08:29.210,7,93,174525,148286,79.0
2026-04-18T20:08:29.250,7,94,173874,147057,79.0
2026-04-18T20:08:29.290,7,95,173874,147057,79.0
2026-04-18T20:08:29.329,7,96,173874,147057,79.0
2026-04-18T20:08:29.369,7,97,173874,147057,79.0
2026-04-18T20:08:29.410,7,98,173131,145506,79.0
2026-04-18T20:08:29.449,7,99,173131,145506,79.0
2026-04-18T20:08:29.489,7,100,173131,145506,79.0
2026-04-18T20:08:29.529,7,101,173131,145506,79.0
2026-04-18T20:08:29.569,7,102,172665,144404,79.0
2026-04-18T20:08:29.609,7,103,172665,144404,79.0
2026-04-18T20:08:29.649,7,104,172665,144404,79.0
2026-04-18T20:08:29.689,7,105,172665,144404,79.0
2026-04-18T20:08:29.728,7,106,172813,144583,79.0
2026-04-18T20:08:29.769,7,107,172813,144583,79.0
2026-04-18T20:08:29.809,7,108,172813,144583,79.0
2026-04-18T20:08:29.848,7,109,172813,144583,79.0
2026-04-18T20:08:29.889,7,110,173417,146145,79.0
2026-04-18T20:08:29.928,7,111,173417,146145,79.0
2026-04-18T20:08:29.969,7,112,173417,146145,79.0
2026-04-18T20:08:30.009,7,113,173417,146145,79.0
2026-04-18T20:08:30.049,7,114,173856,147267,79.0
2026-04-18T20:08:30.089,7,115,173856,147267,79.0
2026-04-18T20:08:30.129,7,116,173856,147267,79.0
2026-04-18T20:08:30.169,7,117,173856,147267,79.0
2026-04-18T20:08:30.209,7,118,173930,147489,79.0
2026-04-18T20:08:30.249,7,119,173930,147489,79.0
2026-04-18T20:08:30.289,7,120,173930,147489,79.0
2026-04-18T20:08:30.328,7,121,173930,147489,79.0
2026-04-18T20:08:30.368,7,122,174071,147736,79.0
2026-04-18T20:08:30.408,7,123,174071,147736,79.0
2026-04-18T20:08:30.448,7,124,174071,147736,79.0
2026-04-18T20:08:30.488,7,125,174071,147736,79.0
2026-04-18T20:08:30.528,7,126,174658,149095,79.0
2026-04-18T20:08:30.568,7,127,174658,149095,79.0
2026-04-18T20:08:30.608,7,128,174658,149095,79.0
2026-04-18T20:08:30.648,7,129,174658,149095,79.0
2026-04-18T20:08:30.688,7,130,174955,150243,79.0
2026-04-18T20:08:30.727,7,131,174955,150243,79.0
2026-04-18T20:08:30.767,7,132,174955,150243,79.0
2026-04-18T20:08:30.807,7,133,174955,150243,79.0
2026-04-18T20:08:30.847,7,134,174937,150296,79.0
2026-04-18T20:08:30.887,7,135,174937,150296,79.0
2026-04-18T20:08:30.927,7,136,174937,150296,79.0
2026-04-18T20:08:30.967,7,137,174937,150296,79.0
2026-04-18T20:08:31.007,7,138,174546,149127,79.0
2026-04-18T20:08:31.047,7,139,174546,149127,79.0
2026-04-18T20:08:31.087,7,140,174546,149127,79.0
2026-04-18T20:08:31.127,7,141,174546,149127,79.0
2026-04-18T20:08:31.167,7,142,173859,147116,79.0
2026-04-18T20:08:31.207,7,143,173859,147116,79.0
2026-04-18T20:08:31.247,7,144,173859,147116,79.0
2026-04-18T20:08:31.287,7,145,173859,147116,79.0
2026-04-18T20:08:31.327,7,146,173606,146646,79.0
2026-04-18T20:08:31.367,7,147,173606,146646,79.0
2026-04-18T20:08:31.406,7,148,173606,146646,79.0
2026-04-18T20:08:31.447,7,149,173606,146646,79.0
2026-04-18T20:08:31.487,7,150,173341,146389,79.0
2026-04-18T20:08:31.527,7,151,173341,146389,79.0
2026-04-18T20:08:31.567,7,152,173341,146389,79.0
2026-04-18T20:08:31.607,7,153,173341,146389,79.0
2026-04-18T20:08:31.646,7,154,173224,146192,79.0
2026-04-18T20:08:31.686,7,155,173224,146192,79.0
2026-04-18T20:08:31.726,7,156,173224,146192,79.0
2026-04-18T20:08:31.766,7,157,173224,146192,79.0
2026-04-18T20:08:31.806,7,158,173602,146966,79.0
2026-04-18T20:08:31.846,7,159,173602,146966,79.0
2026-04-18T20:08:31.886,7,160,173602,146966,79.0
2026-04-18T20:08:31.926,7,161,173602,146966,79.0
2026-04-18T20:08:31.966,7,162,174226,148278,79.0
2026-04-18T20:08:32.005,7,163,174226,148278,79.0
2026-04-18T20:08:32.046,7,164,174226,148278,79.0
2026-04-18T20:08:32.086,7,165,174226,148278,79.0
2026-04-18T20:08:32.125,7,166,174704,149639,79.0
2026-04-18T20:08:32.165,7,167,174704,149639,79.0
2026-04-18T20:08:32.206,7,168,174704,149639,79.0
2026-04-18T20:08:32.246,7,169,174704,149639,79.0
2026-04-18T20:08:32.286,7,170,174890,150278,79.0
2026-04-18T20:08:32.326,7,171,174890,150278,79.0
2026-04-18T20:08:32.366,7,172,174890,150278,79.0
2026-04-18T20:08:32.406,7,173,174890,150278,79.0
2026-04-18T20:08:32.445,7,174,174809,150222,79.0
2026-04-18T20:08:32.485,7,175,174809,150222,79.0
2026-04-18T20:08:32.525,7,176,174809,150222,79.0
2026-04-18T20:08:32.565,7,177,174809,150222,79.0
2026-04-18T20:08:32.606,7,178,174789,150222,79.0
2026-04-18T20:08:32.645,7,179,174789,150222,79.0
2026-04-18T20:08:32.685,7,180,174789,150222,79.0
2026-04-18T20:08:32.725,7,181,174789,150222,79.0
2026-04-18T20:08:32.765,7,182,174967,150454,79.0
2026-04-18T20:08:32.805,7,183,174967,150454,79.0
2026-04-18T20:08:32.845,7,184,174967,150454,79.0
2026-04-18T20:08:32.885,7,185,174967,150454,79.0
2026-04-18T20:08:32.925,7,186,175078,151053,79.0
2026-04-18T20:08:32.965,7,187,175078,151053,79.0
2026-04-18T20:08:33.004,7,188,175078,151053,79.0
2026-04-18T20:08:33.045,7,189,175078,151053,79.0
2026-04-18T20:08:33.084,7,190,175150,151175,79.0
2026-04-18T20:08:33.124,7,191,175150,151175,79.0
2026-04-18T20:08:33.164,7,192,175150,151175,79.0
2026-04-18T20:08:33.205,7,193,175150,151175,79.0
2026-04-18T20:08:33.244,7,194,174880,150332,79.0
2026-04-18T20:08:33.285,7,195,174880,150332,79.0
2026-04-18T20:08:33.324,7,196,174880,150332,79.0
2026-04-18T20:08:33.364,7,197,174880,150332,79.0
2026-04-18T20:08:33.405,7,198,174259,148515,79.0
2026-04-18T20:08:33.444,7,199,174259,148515,79.0
2026-04-18T20:08:33.484,7,200,174259,148515,79.0
2026-04-18T20:08:33.524,7,201,174259,148515,79.0
2026-04-18T20:08:33.564,7,202,173965,147714,79.0
2026-04-18T20:08:33.604,7,203,173965,147714,79.0
2026-04-18T20:08:33.644,7,204,173965,147714,79.0
2026-04-18T20:08:33.684,7,205,173965,147714,79.0
2026-04-18T20:08:33.724,7,206,173648,147304,79.0
2026-04-18T20:08:33.763,7,207,173648,147304,79.0
2026-04-18T20:08:33.804,7,208,173648,147304,79.0
2026-04-18T20:08:33.843,7,209,173648,147304,79.0
2026-04-18T20:08:33.884,7,210,173310,146693,79.0
2026-04-18T20:08:33.924,7,211,173310,146693,79.0
2026-04-18T20:08:33.963,7,212,173310,146693,79.0
2026-04-18T20:08:34.003,7,213,173310,146693,79.0
2026-04-18T20:08:34.043,7,214,173187,146392,79.0
2026-04-18T20:08:34.083,7,215,173187,146392,79.0
2026-04-18T20:08:34.124,7,216,173187,146392,79.0
2026-04-18T20:08:34.163,7,217,173187,146392,79.0
2026-04-18T20:08:34.203,7,218,173395,146680,79.0
2026-04-18T20:08:34.243,7,219,173395,146680,79.0
2026-04-18T20:08:34.283,7,220,173395,146680,79.0
2026-04-18T20:08:34.323,7,221,173395,146680,79.0
2026-04-18T20:08:34.363,7,222,174296,149007,79.0
2026-04-18T20:08:34.403,7,223,174296,149007,79.0
2026-04-18T20:08:34.443,7,224,174296,149007,79.0
2026-04-18T20:08:34.483,7,225,174296,149007,79.0
2026-04-18T20:08:34.523,7,226,174745,150569,79.0
2026-04-18T20:08:34.563,7,227,174745,150569,79.0
2026-04-18T20:08:34.603,7,228,174745,150569,79.0
2026-04-18T20:08:34.643,7,229,174745,150569,79.0
2026-04-18T20:08:34.683,7,230,174889,150972,79.0
2026-04-18T20:08:34.722,7,231,174889,150972,79.0
2026-04-18T20:08:34.763,7,232,174889,150972,79.0
2026-04-18T20:08:34.802,7,233,174889,150972,79.0
2026-04-18T20:08:34.842,7,234,174981,151211,79.0
2026-04-18T20:08:34.883,7,235,174981,151211,79.0
2026-04-18T20:08:34.923,7,236,174981,151211,79.0
2026-04-18T20:08:34.962,7,237,174981,151211,79.0
2026-04-18T20:08:35.003,7,238,175080,151187,79.0
2026-04-18T20:08:35.042,7,239,175080,151187,79.0
2026-04-18T20:08:35.082,7,240,175080,151187,79.0
2026-04-18T20:08:35.123,7,241,175080,151187,79.0
2026-04-18T20:08:35.162,7,242,175303,151773,79.0
2026-04-18T20:08:35.202,7,243,175303,151773,79.0
2026-04-18T20:08:35.242,7,244,175303,151773,79.0
2026-04-18T20:08:35.282,7,245,175303,151773,79.0
2026-04-18T20:08:35.322,7,246,175241,151785,79.0
2026-04-18T20:08:35.362,7,247,175241,151785,79.0
2026-04-18T20:08:35.402,7,248,175241,151785,79.0
2026-04-18T20:08:35.442,7,249,175241,151785,79.0
2026-04-18T20:08:35.482,7,250,174637,150023,79.0
2026-04-18T20:08:39.796,8,0,175074,151371,79.0
2026-04-18T20:08:39.837,8,1,175074,151371,79.0
2026-04-18T20:08:39.876,8,2,175074,151371,79.0
2026-04-18T20:08:39.916,8,3,175074,151371,79.0
2026-04-18T20:08:39.956,8,4,174465,150819,79.0
2026-04-18T20:08:39.997,8,5,174465,150819,79.0
2026-04-18T20:08:40.037,8,6,174465,150819,79.0
2026-04-18T20:08:40.076,8,7,174465,150819,79.0
2026-04-18T20:08:40.116,8,8,174342,149830,79.0
2026-04-18T20:08:40.157,8,9,174342,149830,79.0
2026-04-18T20:08:40.196,8,10,174342,149830,79.0
2026-04-18T20:08:40.237,8,11,174342,149830,79.0
2026-04-18T20:08:40.276,8,12,173717,147899,79.0
2026-04-18T20:08:40.316,8,13,173717,147899,79.0
2026-04-18T20:08:40.357,8,14,173717,147899,79.0
2026-04-18T20:08:40.396,8,15,173717,147899,79.0
2026-04-18T20:08:40.436,8,16,173595,147419,79.0
2026-04-18T20:08:40.476,8,17,173595,147419,79.0
2026-04-18T20:08:40.516,8,18,173595,147419,79.0
2026-04-18T20:08:40.556,8,19,173595,147419,79.0
2026-04-18T20:08:40.596,8,20,173257,147249,79.0
2026-04-18T20:08:40.636,8,21,173257,147249,79.0
2026-04-18T20:08:40.676,8,22,173257,147249,79.0
2026-04-18T20:08:40.716,8,23,173257,147249,79.0
2026-04-18T20:08:40.756,8,24,172384,146347,79.0
2026-04-18T20:08:40.795,8,25,172384,146347,79.0
2026-04-18T20:08:40.835,8,26,172384,146347,79.0
2026-04-18T20:08:40.876,8,27,172384,146347,79.0
2026-04-18T20:08:40.916,8,28,172075,146762,79.0
2026-04-18T20:08:40.956,8,29,172075,146762,79.0
2026-04-18T20:08:40.996,8,30,172075,146762,79.0
2026-04-18T20:08:41.035,8,31,172075,146762,79.0
2026-04-18T20:08:41.075,8,32,168457,140491,79.0
2026-04-18T20:08:41.115,8,33,168457,140491,79.0
2026-04-18T20:08:41.155,8,34,168457,140491,79.0
2026-04-18T20:08:41.195,8,35,168457,140491,79.0
2026-04-18T20:08:41.235,8,36,167820,139690,79.0
2026-04-18T20:08:41.275,8,37,167820,139690,79.0
2026-04-18T20:08:41.315,8,38,167820,139690,79.0
2026-04-18T20:08:41.355,8,39,167820,139690,79.0
2026-04-18T20:08:41.395,8,40,162675,132408,79.0
2026-04-18T20:08:41.435,8,41,162675,132408,79.0
2026-04-18T20:08:41.475,8,42,162675,132408,79.0
2026-04-18T20:08:41.515,8,43,162675,132408,79.0
2026-04-18T20:08:41.554,8,44,158015,126436,79.0
2026-04-18T20:08:41.595,8,45,158015,126436,79.0
2026-04-18T20:08:41.635,8,46,158015,126436,79.0
2026-04-18T20:08:41.674,8,47,158015,126436,79.0
2026-04-18T20:08:41.714,8,48,155810,124162,79.0
2026-04-18T20:08:41.754,8,49,155810,124162,79.0
2026-04-18T20:08:41.795,8,50,155810,124162,79.0
2026-04-18T20:08:41.834,8,51,155810,124162,79.0
2026-04-18T20:08:41.874,8,52,155791,124428,79.0
2026-04-18T20:08:41.914,8,53,155791,124428,79.0
2026-04-18T20:08:41.954,8,54,155791,124428,79.0
2026-04-18T20:08:41.994,8,55,155791,124428,79.0
2026-04-18T20:08:42.034,8,56,156402,125457,79.0
2026-04-18T20:08:42.074,8,57,156402,125457,79.0
2026-04-18T20:08:42.114,8,58,156402,125457,79.0
2026-04-18T20:08:42.154,8,59,156402,125457,79.0
2026-04-18T20:08:42.194,8,60,156319,124964,79.0
2026-04-18T20:08:42.234,8,61,156319,124964,79.0
2026-04-18T20:08:42.274,8,62,156319,124964,79.0
2026-04-18T20:08:42.314,8,63,156319,124964,79.0
2026-04-18T20:08:42.354,8,64,156279,124519,79.0
2026-04-18T20:08:42.393,8,65,156279,124519,79.0
2026-04-18T20:08:42.433,8,66,156279,124519,79.0
2026-04-18T20:08:42.474,8,67,156279,124519,79.0
2026-04-18T20:08:42.514,8,68,156210,124148,79.0
2026-04-18T20:08:42.554,8,69,156210,124148,79.0
2026-04-18T20:08:42.593,8,70,156210,124148,79.0
2026-04-18T20:08:42.633,8,71,156210,124148,79.0
2026-04-18T20:08:42.673,8,72,155928,123729,79.0
2026-04-18T20:08:42.713,8,73,155928,123729,79.0
2026-04-18T20:08:42.753,8,74,155928,123729,79.0
2026-04-18T20:08:42.793,8,75,155928,123729,79.0
2026-04-18T20:08:42.833,8,76,155895,123615,79.0
2026-04-18T20:08:42.873,8,77,155895,123615,79.0
2026-04-18T20:08:42.913,8,78,155895,123615,79.0
2026-04-18T20:08:42.953,8,79,155895,123615,79.0
2026-04-18T20:08:42.993,8,80,155827,123461,79.0
2026-04-18T20:08:43.033,8,81,155827,123461,79.0
2026-04-18T20:08:43.073,8,82,155827,123461,79.0
2026-04-18T20:08:43.113,8,83,155827,123461,79.0
2026-04-18T20:08:43.153,8,84,155853,123426,79.0
2026-04-18T20:08:43.193,8,85,155853,123426,79.0
2026-04-18T20:08:43.233,8,86,155853,123426,79.0
2026-04-18T20:08:43.273,8,87,155853,123426,79.0
2026-04-18T20:08:43.313,8,88,155988,123405,79.0
2026-04-18T20:08:43.353,8,89,155988,123405,79.0
2026-04-18T20:08:43.393,8,90,155988,123405,79.0
2026-04-18T20:08:43.432,8,91,155988,123405,79.0
2026-04-18T20:08:43.472,8,92,156144,123488,79.0
2026-04-18T20:08:43.512,8,93,156144,123488,79.0
2026-04-18T20:08:43.552,8,94,156144,123488,79.0
2026-04-18T20:08:43.592,8,95,156144,123488,79.0
2026-04-18T20:08:43.632,8,96,156282,123559,79.0
2026-04-18T20:08:43.672,8,97,156282,123559,79.0
2026-04-18T20:08:43.712,8,98,156282,123559,79.0
2026-04-18T20:08:43.752,8,99,156282,123559,79.0
2026-04-18T20:08:43.793,8,100,156328,123518,79.0
2026-04-18T20:08:43.832,8,101,156328,123518,79.0
2026-04-18T20:08:43.872,8,102,156328,123518,79.0
2026-04-18T20:08:43.912,8,103,156328,123518,79.0
2026-04-18T20:08:43.952,8,104,156467,123613,79.0
2026-04-18T20:08:43.992,8,105,156467,123613,79.0
2026-04-18T20:08:44.032,8,106,156467,123613,79.0
2026-04-18T20:08:44.071,8,107,156467,123613,79.0
2026-04-18T20:08:44.112,8,108,156643,123670,79.0
2026-04-18T20:08:44.152,8,109,156643,123670,79.0
2026-04-18T20:08:44.191,8,110,156643,123670,79.0
2026-04-18T20:08:44.231,8,111,156643,123670,79.0
2026-04-18T20:08:44.271,8,112,156829,123794,79.0
2026-04-18T20:08:44.312,8,113,156829,123794,79.0
2026-04-18T20:08:44.351,8,114,156829,123794,79.0
2026-04-18T20:08:44.392,8,115,156829,123794,79.0
2026-04-18T20:08:44.431,8,116,156956,123929,79.0
2026-04-18T20:08:44.471,8,117,156956,123929,79.0
2026-04-18T20:08:44.511,8,118,156956,123929,79.0
2026-04-18T20:08:44.551,8,119,156956,123929,79.0
2026-04-18T20:08:44.592,8,120,157293,124135,79.0
2026-04-18T20:08:44.631,8,121,157293,124135,79.0
2026-04-18T20:08:44.671,8,122,157293,124135,79.0
2026-04-18T20:08:44.711,8,123,157293,124135,79.0
2026-04-18T20:08:44.751,8,124,157359,124109,79.0
2026-04-18T20:08:44.790,8,125,157359,124109,79.0
2026-04-18T20:08:44.831,8,126,157359,124109,79.0
2026-04-18T20:08:44.871,8,127,157359,124109,79.0
2026-04-18T20:08:44.910,8,128,157338,123980,79.0
2026-04-18T20:08:44.951,8,129,157338,123980,79.0
2026-04-18T20:08:44.990,8,130,157338,123980,79.0
2026-04-18T20:08:45.031,8,131,157338,123980,79.0
2026-04-18T20:08:45.070,8,132,157449,124098,79.0
2026-04-18T20:08:45.110,8,133,157449,124098,79.0
2026-04-18T20:08:45.150,8,134,157449,124098,79.0
2026-04-18T20:08:45.190,8,135,157449,124098,79.0
2026-04-18T20:08:45.230,8,136,157537,124193,79.0
2026-04-18T20:08:45.270,8,137,157537,124193,79.0
2026-04-18T20:08:45.310,8,138,157537,124193,79.0
2026-04-18T20:08:45.350,8,139,157537,124193,79.0
2026-04-18T20:08:45.390,8,140,157544,124151,79.0
2026-04-18T20:08:45.430,8,141,157544,124151,79.0
2026-04-18T20:08:45.470,8,142,157544,124151,79.0
2026-04-18T20:08:45.510,8,143,157544,124151,79.0
2026-04-18T20:08:45.550,8,144,157485,123972,79.0
2026-04-18T20:08:45.590,8,145,157485,123972,79.0
2026-04-18T20:08:45.630,8,146,157485,123972,79.0
2026-04-18T20:08:45.670,8,147,157485,123972,79.0
2026-04-18T20:08:45.709,8,148,157458,123862,79.0
2026-04-18T20:08:45.750,8,149,157458,123862,79.0
2026-04-18T20:08:45.790,8,150,157458,123862,79.0
2026-04-18T20:08:45.830,8,151,157458,123862,79.0
2026-04-18T20:08:45.869,8,152,157460,123868,79.0
2026-04-18T20:08:45.909,8,153,157460,123868,79.0
2026-04-18T20:08:45.949,8,154,157460,123868,79.0
2026-04-18T20:08:45.989,8,155,157460,123868,79.0
2026-04-18T20:08:46.030,8,156,157439,123820,79.0
2026-04-18T20:08:46.069,8,157,157439,123820,79.0
2026-04-18T20:08:46.109,8,158,157439,123820,79.0
2026-04-18T20:08:46.149,8,159,157439,123820,79.0
2026-04-18T20:08:46.189,8,160,157486,123802,79.0
2026-04-18T20:08:46.229,8,161,157486,123802,79.0
2026-04-18T20:08:46.269,8,162,157486,123802,79.0
2026-04-18T20:08:46.309,8,163,157486,123802,79.0
2026-04-18T20:08:46.349,8,164,157512,123780,79.0
2026-04-18T20:08:46.389,8,165,157512,123780,79.0
2026-04-18T20:08:46.429,8,166,157512,123780,79.0
2026-04-18T20:08:46.469,8,167,157512,123780,79.0
2026-04-18T20:08:46.509,8,168,157562,123804,79.0
2026-04-18T20:08:46.548,8,169,157562,123804,79.0
2026-04-18T20:08:46.589,8,170,157562,123804,79.0
2026-04-18T20:08:46.629,8,171,157562,123804,79.0
2026-04-18T20:08:46.669,8,172,157599,123882,79.0
2026-04-18T20:08:46.708,8,173,157599,123882,79.0
2026-04-18T20:08:46.749,8,174,157599,123882,79.0
2026-04-18T20:08:46.789,8,175,157599,123882,79.0
2026-04-18T20:08:46.828,8,176,157725,124143,79.0
2026-04-18T20:08:46.868,8,177,157725,124143,79.0
2026-04-18T20:08:46.908,8,178,157725,124143,79.0
2026-04-18T20:08:46.948,8,179,157725,124143,79.0
2026-04-18T20:08:46.989,8,180,157754,124164,79.0
2026-04-18T20:08:47.028,8,181,157754,124164,79.0
2026-04-18T20:08:47.068,8,182,157754,124164,79.0
2026-04-18T20:08:47.108,8,183,157754,124164,79.0
2026-04-18T20:08:47.148,8,184,157791,124122,79.0
2026-04-18T20:08:47.188,8,185,157791,124122,79.0
2026-04-18T20:08:47.228,8,186,157791,124122,79.0
2026-04-18T20:08:47.267,8,187,157791,124122,79.0
2026-04-18T20:08:47.307,8,188,157893,124309,79.0
2026-04-18T20:08:47.347,8,189,157893,124309,79.0
2026-04-18T20:08:47.388,8,190,157893,124309,79.0
2026-04-18T20:08:47.428,8,191,157893,124309,79.0
2026-04-18T20:08:47.467,8,192,158047,124512,79.0
2026-04-18T20:08:47.508,8,193,158047,124512,79.0
2026-04-18T20:08:47.548,8,194,158047,124512,79.0
2026-04-18T20:08:47.587,8,195,158047,124512,79.0
2026-04-18T20:08:47.628,8,196,158026,124396,79.0
2026-04-18T20:08:47.668,8,197,158026,124396,79.0
2026-04-18T20:08:47.708,8,198,158026,124396,79.0
2026-04-18T20:08:47.748,8,199,158026,124396,79.0
2026-04-18T20:08:47.787,8,200,157931,124196,79.0
2026-04-18T20:08:47.827,8,201,157931,124196,79.0
2026-04-18T20:08:47.867,8,202,157931,124196,79.0
2026-04-18T20:08:47.907,8,203,157931,124196,79.0
2026-04-18T20:08:47.947,8,204,157896,124090,79.0
2026-04-18T20:08:47.987,8,205,157896,124090,79.0
2026-04-18T20:08:48.026,8,206,157896,124090,79.0
2026-04-18T20:08:48.067,8,207,157896,124090,79.0
2026-04-18T20:08:48.107,8,208,157896,124113,79.0
2026-04-18T20:08:48.147,8,209,157896,124113,79.0
2026-04-18T20:08:48.186,8,210,157896,124113,79.0
2026-04-18T20:08:48.226,8,211,157896,124113,79.0
2026-04-18T20:08:48.266,8,212,157894,124175,79.0
2026-04-18T20:08:48.306,8,213,157894,124175,79.0
2026-04-18T20:08:48.347,8,214,157894,124175,79.0
2026-04-18T20:08:48.387,8,215,157894,124175,79.0
2026-04-18T20:08:48.426,8,216,157904,124197,79.0
2026-04-18T20:08:48.467,8,217,157904,124197,79.0
2026-04-18T20:08:48.507,8,218,157904,124197,79.0
2026-04-18T20:08:48.546,8,219,157904,124197,79.0
2026-04-18T20:08:48.586,8,220,157936,124222,79.0
2026-04-18T20:08:48.626,8,221,157936,124222,79.0
2026-04-18T20:08:48.666,8,222,157936,124222,79.0
2026-04-18T20:08:48.706,8,223,157936,124222,79.0
2026-04-18T20:08:48.746,8,224,157965,124302,79.0
2026-04-18T20:08:48.786,8,225,157965,124302,79.0
2026-04-18T20:08:48.826,8,226,157965,124302,79.0
2026-04-18T20:08:48.866,8,227,157965,124302,79.0
2026-04-18T20:08:48.906,8,228,157956,124358,79.0
2026-04-18T20:08:48.946,8,229,157956,124358,79.0
2026-04-18T20:08:48.986,8,230,157956,124358,79.0
2026-04-18T20:08:49.025,8,231,157956,124358,79.0
2026-04-18T20:08:49.065,8,232,157998,124446,79.0
2026-04-18T20:08:49.105,8,233,157998,124446,79.0
2026-04-18T20:08:49.145,8,234,157998,124446,79.0
2026-04-18T20:08:49.185,8,235,157998,124446,79.0
2026-04-18T20:08:49.225,8,236,158000,124473,79.0
2026-04-18T20:08:49.265,8,237,158000,124473,79.0
2026-04-18T20:08:49.305,8,238,158000,124473,79.0
2026-04-18T20:08:49.345,8,239,158000,124473,79.0
2026-04-18T20:08:49.385,8,240,158021,124446,79.0
2026-04-18T20:08:49.425,8,241,158021,124446,79.0
2026-04-18T20:08:49.465,8,242,158021,124446,79.0
2026-04-18T20:08:49.505,8,243,158021,124446,79.0
2026-04-18T20:08:49.545,8,244,158046,124564,79.0
2026-04-18T20:08:49.585,8,245,158046,124564,79.0
2026-04-18T20:08:49.625,8,246,158046,124564,79.0
2026-04-18T20:08:49.665,8,247,158046,124564,79.0
2026-04-18T20:08:49.705,8,248,158103,124700,79.0
2026-04-18T20:08:49.745,8,249,158103,124700,79.0
2026-04-18T20:08:49.785,8,250,158103,124700,79.0
2026-04-18T20:08:49.825,8,251,158103,124700,79.0
2026-04-18T20:08:59.493,9,0,166146,135924,81.0
2026-04-18T20:08:59.533,9,1,166146,135924,81.0
2026-04-18T20:08:59.573,9,2,166146,135924,81.0
2026-04-18T20:08:59.613,9,3,166867,136966,81.0
2026-04-18T20:08:59.653,9,4,166867,136966,81.0
2026-04-18T20:08:59.693,9,5,166867,136966,81.0
2026-04-18T20:08:59.733,9,6,166867,136966,81.0
2026-04-18T20:08:59.773,9,7,167600,138026,81.0
2026-04-18T20:08:59.813,9,8,167600,138026,81.0
2026-04-18T20:08:59.852,9,9,167600,138026,81.0
2026-04-18T20:08:59.892,9,10,167600,138026,81.0
2026-04-18T20:08:59.932,9,11,168450,139277,81.0
2026-04-18T20:08:59.972,9,12,168450,139277,81.0
2026-04-18T20:09:00.012,9,13,168450,139277,81.0
2026-04-18T20:09:00.052,9,14,168450,139277,81.0
2026-04-18T20:09:00.092,9,15,169557,141161,81.0
2026-04-18T20:09:00.132,9,16,169557,141161,81.0
2026-04-18T20:09:00.172,9,17,169557,141161,81.0
2026-04-18T20:09:00.212,9,18,169557,141161,81.0
2026-04-18T20:09:00.252,9,19,170212,142594,81.0
2026-04-18T20:09:00.292,9,20,170212,142594,81.0
2026-04-18T20:09:00.332,9,21,170212,142594,81.0
2026-04-18T20:09:00.372,9,22,170212,142594,81.0
2026-04-18T20:09:00.412,9,23,169312,140989,81.0
2026-04-18T20:09:00.452,9,24,169312,140989,81.0
2026-04-18T20:09:00.492,9,25,169312,140989,81.0
2026-04-18T20:09:00.532,9,26,169312,140989,81.0
2026-04-18T20:09:00.571,9,27,164585,133181,81.0
2026-04-18T20:09:00.611,9,28,164585,133181,81.0
2026-04-18T20:09:00.651,9,29,164585,133181,81.0
2026-04-18T20:09:00.692,9,30,164585,133181,81.0
2026-04-18T20:09:00.732,9,31,159930,127248,81.0
2026-04-18T20:09:00.772,9,32,159930,127248,81.0
2026-04-18T20:09:00.812,9,33,159930,127248,81.0
2026-04-18T20:09:00.851,9,34,159930,127248,81.0
2026-04-18T20:09:00.891,9,35,158786,125874,81.0
2026-04-18T20:09:00.931,9,36,158786,125874,81.0
2026-04-18T20:09:00.971,9,37,158786,125874,81.0
2026-04-18T20:09:01.011,9,38,158786,125874,81.0
2026-04-18T20:09:01.051,9,39,158462,125507,81.0
2026-04-18T20:09:01.091,9,40,158462,125507,81.0
2026-04-18T20:09:01.131,9,41,158462,125507,81.0
2026-04-18T20:09:01.171,9,42,158462,125507,81.0
2026-04-18T20:09:01.211,9,43,158455,125614,81.0
2026-04-18T20:09:01.251,9,44,158455,125614,81.0
2026-04-18T20:09:01.291,9,45,158455,125614,81.0
2026-04-18T20:09:01.331,9,46,158455,125614,81.0
2026-04-18T20:09:01.371,9,47,158814,126043,81.0
2026-04-18T20:09:01.411,9,48,158814,126043,81.0
2026-04-18T20:09:01.451,9,49,158814,126043,81.0
2026-04-18T20:09:01.491,9,50,158814,126043,81.0
2026-04-18T20:09:01.531,9,51,159382,126556,81.0
2026-04-18T20:09:01.570,9,52,159382,126556,81.0
2026-04-18T20:09:01.611,9,53,159382,126556,81.0
2026-04-18T20:09:01.651,9,54,159382,126556,81.0
2026-04-18T20:09:01.690,9,55,159431,126523,81.0
2026-04-18T20:09:01.730,9,56,159431,126523,81.0
2026-04-18T20:09:01.771,9,57,159431,126523,81.0
2026-04-18T20:09:01.810,9,58,159431,126523,81.0
2026-04-18T20:09:01.850,9,59,159504,126533,81.0
2026-04-18T20:09:01.890,9,60,159504,126533,81.0
2026-04-18T20:09:01.930,9,61,159504,126533,81.0
2026-04-18T20:09:01.970,9,62,159504,126533,81.0
2026-04-18T20:09:02.009,9,63,159415,126327,81.0
2026-04-18T20:09:02.050,9,64,159415,126327,81.0
2026-04-18T20:09:02.090,9,65,159415,126327,81.0
2026-04-18T20:09:02.129,9,66,159415,126327,81.0
2026-04-18T20:09:02.169,9,67,159278,126142,81.0
2026-04-18T20:09:02.210,9,68,159278,126142,81.0
2026-04-18T20:09:02.250,9,69,159278,126142,81.0
2026-04-18T20:09:02.290,9,70,159278,126142,81.0
2026-04-18T20:09:02.329,9,71,159247,126142,81.0
2026-04-18T20:09:02.369,9,72,159247,126142,81.0
2026-04-18T20:09:02.409,9,73,159247,126142,81.0
2026-04-18T20:09:02.449,9,74,159247,126142,81.0
2026-04-18T20:09:02.489,9,75,159250,126161,81.0
2026-04-18T20:09:02.529,9,76,159250,126161,81.0
2026-04-18T20:09:02.569,9,77,159250,126161,81.0
2026-04-18T20:09:02.609,9,78,159250,126161,81.0
2026-04-18T20:09:02.649,9,79,159225,126094,81.0
2026-04-18T20:09:02.689,9,80,159225,126094,81.0
2026-04-18T20:09:02.729,9,81,159225,126094,81.0
2026-04-18T20:09:02.769,9,82,159225,126094,81.0
2026-04-18T20:09:02.809,9,83,159199,125962,81.0
2026-04-18T20:09:02.849,9,84,159199,125962,81.0
2026-04-18T20:09:02.889,9,85,159199,125962,81.0
2026-04-18T20:09:02.929,9,86,159199,125962,81.0
2026-04-18T20:09:02.969,9,87,159266,126078,81.0
2026-04-18T20:09:03.009,9,88,159266,126078,81.0
2026-04-18T20:09:03.048,9,89,159266,126078,81.0
2026-04-18T20:09:03.089,9,90,159266,126078,81.0
2026-04-18T20:09:03.129,9,91,159357,126298,81.0
2026-04-18T20:09:03.169,9,92,159357,126298,81.0
2026-04-18T20:09:03.209,9,93,159357,126298,81.0
2026-04-18T20:09:03.249,9,94,159357,126298,81.0
2026-04-18T20:09:03.288,9,95,159441,126445,81.0
2026-04-18T20:09:03.328,9,96,159441,126445,81.0
2026-04-18T20:09:03.369,9,97,159441,126445,81.0
2026-04-18T20:09:03.409,9,98,159441,126445,81.0
2026-04-18T20:09:03.448,9,99,159490,126509,81.0
2026-04-18T20:09:03.489,9,100,159490,126509,81.0
2026-04-18T20:09:03.528,9,101,159490,126509,81.0
2026-04-18T20:09:03.568,9,102,159490,126509,81.0
2026-04-18T20:09:03.608,9,103,159589,126652,81.0
2026-04-18T20:09:03.648,9,104,159589,126652,81.0
2026-04-18T20:09:03.688,9,105,159589,126652,81.0
2026-04-18T20:09:03.728,9,106,159589,126652,81.0
2026-04-18T20:09:03.768,9,107,159725,126944,81.0
2026-04-18T20:09:03.808,9,108,159725,126944,81.0
2026-04-18T20:09:03.848,9,109,159725,126944,81.0
2026-04-18T20:09:03.888,9,110,159725,126944,81.0
2026-04-18T20:09:03.928,9,111,159805,127076,81.0
2026-04-18T20:09:03.967,9,112,159805,127076,81.0
2026-04-18T20:09:04.007,9,113,159805,127076,81.0
2026-04-18T20:09:04.047,9,114,159805,127076,81.0
2026-04-18T20:09:04.087,9,115,159815,127051,81.0
2026-04-18T20:09:04.128,9,116,159815,127051,81.0
2026-04-18T20:09:04.167,9,117,159815,127051,81.0
2026-04-18T20:09:04.208,9,118,159815,127051,81.0
2026-04-18T20:09:04.247,9,119,159863,127090,81.0
2026-04-18T20:09:04.288,9,120,159863,127090,81.0
2026-04-18T20:09:04.328,9,121,159863,127090,81.0
2026-04-18T20:09:04.367,9,122,159863,127090,81.0
2026-04-18T20:09:04.408,9,123,159932,127235,81.0
2026-04-18T20:09:04.447,9,124,159932,127235,81.0
2026-04-18T20:09:04.487,9,125,159932,127235,81.0
2026-04-18T20:09:04.527,9,126,159932,127235,81.0
2026-04-18T20:09:04.567,9,127,159965,127377,81.0
2026-04-18T20:09:04.607,9,128,159965,127377,81.0
2026-04-18T20:09:04.647,9,129,159965,127377,81.0
2026-04-18T20:09:04.688,9,130,159965,127377,81.0
2026-04-18T20:09:04.727,9,131,159976,127329,81.0
2026-04-18T20:09:04.767,9,132,159976,127329,81.0
2026-04-18T20:09:04.807,9,133,159976,127329,81.0
2026-04-18T20:09:04.846,9,134,159976,127329,81.0
2026-04-18T20:09:04.886,9,135,159974,127194,81.0
2026-04-18T20:09:04.927,9,136,159974,127194,81.0
2026-04-18T20:09:04.967,9,137,159974,127194,81.0
2026-04-18T20:09:05.006,9,138,159974,127194,81.0
2026-04-18T20:09:05.046,9,139,159962,127108,81.0
2026-04-18T20:09:05.086,9,140,159962,127108,81.0
2026-04-18T20:09:05.126,9,141,159962,127108,81.0
2026-04-18T20:09:05.166,9,142,159962,127108,81.0
2026-04-18T20:09:05.206,9,143,159896,127064,81.0
2026-04-18T20:09:05.246,9,144,159896,127064,81.0
2026-04-18T20:09:05.286,9,145,159896,127064,81.0
2026-04-18T20:09:05.326,9,146,159896,127064,81.0
2026-04-18T20:09:05.366,9,147,159653,126695,81.0
2026-04-18T20:09:05.406,9,148,159653,126695,81.0
2026-04-18T20:09:05.446,9,149,159653,126695,81.0
2026-04-18T20:09:05.486,9,150,159653,126695,81.0
2026-04-18T20:09:05.526,9,151,159435,126343,81.0
2026-04-18T20:09:05.566,9,152,159435,126343,81.0
2026-04-18T20:09:05.606,9,153,159435,126343,81.0
2026-04-18T20:09:05.646,9,154,159435,126343,81.0
2026-04-18T20:09:05.686,9,155,159353,126128,81.0
2026-04-18T20:09:05.726,9,156,159353,126128,81.0
2026-04-18T20:09:05.765,9,157,159353,126128,81.0
2026-04-18T20:09:05.805,9,158,159353,126128,81.0
2026-04-18T20:09:05.845,9,159,159387,126231,81.0
2026-04-18T20:09:05.885,9,160,159387,126231,81.0
2026-04-18T20:09:05.925,9,161,159387,126231,81.0
2026-04-18T20:09:05.965,9,162,159387,126231,81.0
2026-04-18T20:09:06.006,9,163,159422,126342,81.0
2026-04-18T20:09:06.045,9,164,159422,126342,81.0
2026-04-18T20:09:06.085,9,165,159422,126342,81.0
2026-04-18T20:09:06.125,9,166,159422,126342,81.0
2026-04-18T20:09:06.165,9,167,159386,126271,81.0
2026-04-18T20:09:06.205,9,168,159386,126271,81.0
2026-04-18T20:09:06.245,9,169,159386,126271,81.0
2026-04-18T20:09:06.285,9,170,159386,126271,81.0
2026-04-18T20:09:06.325,9,171,159397,126258,81.0
2026-04-18T20:09:06.365,9,172,159397,126258,81.0
2026-04-18T20:09:06.405,9,173,159397,126258,81.0
2026-04-18T20:09:06.445,9,174,159397,126258,81.0
2026-04-18T20:09:06.485,9,175,159468,126380,81.0
2026-04-18T20:09:06.525,9,176,159468,126380,81.0
2026-04-18T20:09:06.565,9,177,159468,126380,81.0
2026-04-18T20:09:06.605,9,178,159468,126380,81.0
2026-04-18T20:09:06.645,9,179,159517,126584,81.0
2026-04-18T20:09:06.685,9,180,159517,126584,81.0
2026-04-18T20:09:06.724,9,181,159517,126584,81.0
2026-04-18T20:09:06.765,9,182,159517,126584,81.0
2026-04-18T20:09:06.804,9,183,159610,126790,81.0
2026-04-18T20:09:06.844,9,184,159610,126790,81.0
2026-04-18T20:09:06.884,9,185,159610,126790,81.0
2026-04-18T20:09:06.924,9,186,159610,126790,81.0
2026-04-18T20:09:06.964,9,187,159649,126868,81.0
2026-04-18T20:09:07.004,9,188,159649,126868,81.0
2026-04-18T20:09:07.044,9,189,159649,126868,81.0
2026-04-18T20:09:07.084,9,190,159649,126868,81.0
2026-04-18T20:09:07.124,9,191,159717,126947,81.0
2026-04-18T20:09:07.164,9,192,159717,126947,81.0
2026-04-18T20:09:07.204,9,193,159717,126947,81.0
2026-04-18T20:09:07.244,9,194,159717,126947,81.0
2026-04-18T20:09:07.283,9,195,159790,127138,81.0
2026-04-18T20:09:07.324,9,196,159790,127138,81.0
2026-04-18T20:09:07.364,9,197,159790,127138,81.0
2026-04-18T20:09:07.404,9,198,159790,127138,81.0
2026-04-18T20:09:07.443,9,199,159858,127344,81.0
2026-04-18T20:09:07.484,9,200,159858,127344,81.0
2026-04-18T20:09:07.524,9,201,159858,127344,81.0
2026-04-18T20:09:07.564,9,202,159858,127344,81.0
2026-04-18T20:09:07.604,9,203,159885,127330,81.0
2026-04-18T20:09:07.644,9,204,159885,127330,81.0
2026-04-18T20:09:07.683,9,205,159885,127330,81.0
2026-04-18T20:09:07.723,9,206,159885,127330,81.0
2026-04-18T20:09:07.764,9,207,159896,127323,81.0
2026-04-18T20:09:07.804,9,208,159896,127323,81.0
2026-04-18T20:09:07.843,9,209,159896,127323,81.0
2026-04-18T20:09:07.884,9,210,159896,127323,81.0
2026-04-18T20:09:07.923,9,211,159949,127353,81.0
2026-04-18T20:09:07.963,9,212,159949,127353,81.0
2026-04-18T20:09:08.003,9,213,159949,127353,81.0
2026-04-18T20:09:08.043,9,214,159949,127353,81.0
2026-04-18T20:09:08.083,9,215,159981,127420,81.0
2026-04-18T20:09:08.123,9,216,159981,127420,81.0
2026-04-18T20:09:08.163,9,217,159981,127420,81.0
2026-04-18T20:09:08.203,9,218,159981,127420,81.0
2026-04-18T20:09:08.243,9,219,159956,127375,81.0
2026-04-18T20:09:08.283,9,220,159956,127375,81.0
2026-04-18T20:09:08.323,9,221,159956,127375,81.0
2026-04-18T20:09:08.363,9,222,159956,127375,81.0
2026-04-18T20:09:08.403,9,223,159874,127135,81.0
2026-04-18T20:09:08.442,9,224,159874,127135,81.0
2026-04-18T20:09:08.482,9,225,159874,127135,81.0
2026-04-18T20:09:08.522,9,226,159874,127135,81.0
2026-04-18T20:09:08.563,9,227,159803,126907,81.0
2026-04-18T20:09:08.602,9,228,159803,126907,81.0
2026-04-18T20:09:08.642,9,229,159803,126907,81.0
2026-04-18T20:09:08.683,9,230,159803,126907,81.0
2026-04-18T20:09:08.722,9,231,159766,126849,81.0
2026-04-18T20:09:08.762,9,232,159766,126849,81.0
2026-04-18T20:09:08.802,9,233,159766,126849,81.0
2026-04-18T20:09:08.842,9,234,159766,126849,81.0
2026-04-18T20:09:08.882,9,235,159799,126984,81.0
2026-04-18T20:09:08.922,9,236,159799,126984,81.0
2026-04-18T20:09:08.962,9,237,159799,126984,81.0
2026-04-18T20:09:09.001,9,238,159799,126984,81.0
2026-04-18T20:09:09.042,9,239,159844,127090,81.0
2026-04-18T20:09:09.082,9,240,159844,127090,81.0
2026-04-18T20:09:09.121,9,241,159844,127090,81.0
2026-04-18T20:09:09.162,9,242,159844,127090,81.0
2026-04-18T20:09:09.202,9,243,159865,127116,81.0
2026-04-18T20:09:09.242,9,244,159865,127116,81.0
2026-04-18T20:09:09.281,9,245,159865,127116,81.0
2026-04-18T20:09:09.322,9,246,159865,127116,81.0
2026-04-18T20:09:09.361,9,247,159920,127174,81.0
2026-04-18T20:09:09.401,9,248,159920,127174,81.0
2026-04-18T20:09:09.441,9,249,159920,127174,81.0
2026-04-18T20:09:09.481,9,250,159920,127174,81.0
2026-04-18T20:09:09.521,9,251,159987,127375,81.0
2026-04-18T20:09:12.757,10,0,169939,142713,83.0
2026-04-18T20:09:12.797,10,1,169939,142713,83.0
2026-04-18T20:09:12.837,10,2,169939,142713,83.0
2026-04-18T20:09:12.877,10,3,170005,142785,83.0
2026-04-18T20:09:12.917,10,4,170005,142785,83.0
2026-04-18T20:09:12.957,10,5,170005,142785,83.0
2026-04-18T20:09:12.997,10,6,170005,142785,83.0
2026-04-18T20:09:13.037,10,7,170150,142453,83.0
2026-04-18T20:09:13.077,10,8,170150,142453,83.0
2026-04-18T20:09:13.117,10,9,170150,142453,83.0
2026-04-18T20:09:13.157,10,10,170150,142453,83.0
2026-04-18T20:09:13.197,10,11,170901,142902,83.0
2026-04-18T20:09:13.237,10,12,170901,142902,83.0
2026-04-18T20:09:13.277,10,13,170901,142902,83.0
2026-04-18T20:09:13.317,10,14,170901,142902,83.0
2026-04-18T20:09:13.356,10,15,169192,139255,83.0
2026-04-18T20:09:13.397,10,16,169192,139255,83.0
2026-04-18T20:09:13.437,10,17,169192,139255,83.0
2026-04-18T20:09:13.476,10,18,169192,139255,83.0
2026-04-18T20:09:13.517,10,19,165219,133384,83.0
2026-04-18T20:09:13.557,10,20,165219,133384,83.0
2026-04-18T20:09:13.596,10,21,165219,133384,83.0
2026-04-18T20:09:13.636,10,22,165219,133384,83.0
2026-04-18T20:09:13.676,10,23,162884,129634,83.0
2026-04-18T20:09:13.716,10,24,162884,129634,83.0
2026-04-18T20:09:13.756,10,25,162884,129634,83.0
2026-04-18T20:09:13.796,10,26,162884,129634,83.0
2026-04-18T20:09:13.836,10,27,161405,127817,83.0
2026-04-18T20:09:13.875,10,28,161405,127817,83.0
2026-04-18T20:09:13.916,10,29,161405,127817,83.0
2026-04-18T20:09:13.956,10,30,161405,127817,83.0
2026-04-18T20:09:13.996,10,31,161388,127945,83.0
2026-04-18T20:09:14.036,10,32,161388,127945,83.0
2026-04-18T20:09:14.076,10,33,161388,127945,83.0
2026-04-18T20:09:14.116,10,34,161388,127945,83.0
2026-04-18T20:09:14.156,10,35,161443,127863,83.0
2026-04-18T20:09:14.196,10,36,161443,127863,83.0
2026-04-18T20:09:14.236,10,37,161443,127863,83.0
2026-04-18T20:09:14.276,10,38,161443,127863,83.0
2026-04-18T20:09:14.315,10,39,161578,127967,83.0
2026-04-18T20:09:14.355,10,40,161578,127967,83.0
2026-04-18T20:09:14.396,10,41,161578,127967,83.0
2026-04-18T20:09:14.436,10,42,161578,127967,83.0
2026-04-18T20:09:14.475,10,43,161628,127971,83.0
2026-04-18T20:09:14.516,10,44,161628,127971,83.0
2026-04-18T20:09:14.555,10,45,161628,127971,83.0
2026-04-18T20:09:14.595,10,46,161628,127971,83.0
2026-04-18T20:09:14.635,10,47,161866,128516,83.0
2026-04-18T20:09:14.675,10,48,161866,128516,83.0
2026-04-18T20:09:14.714,10,49,161866,128516,83.0
2026-04-18T20:09:14.755,10,50,161866,128516,83.0
2026-04-18T20:09:14.795,10,51,161994,128754,83.0
2026-04-18T20:09:14.835,10,52,161994,128754,83.0
2026-04-18T20:09:14.875,10,53,161994,128754,83.0
2026-04-18T20:09:14.915,10,54,161994,128754,83.0
2026-04-18T20:09:14.955,10,55,161882,128554,83.0
2026-04-18T20:09:14.995,10,56,161882,128554,83.0
2026-04-18T20:09:15.034,10,57,161882,128554,83.0
2026-04-18T20:09:15.074,10,58,161882,128554,83.0
2026-04-18T20:09:15.115,10,59,161821,128427,83.0
2026-04-18T20:09:15.155,10,60,161821,128427,83.0
2026-04-18T20:09:15.195,10,61,161821,128427,83.0
2026-04-18T20:09:15.235,10,62,161821,128427,83.0
2026-04-18T20:09:15.274,10,63,161872,128544,83.0
2026-04-18T20:09:15.314,10,64,161872,128544,83.0
2026-04-18T20:09:15.354,10,65,161872,128544,83.0
2026-04-18T20:09:15.394,10,66,161872,128544,83.0
2026-04-18T20:09:15.435,10,67,161985,128901,83.0
2026-04-18T20:09:15.474,10,68,161985,128901,83.0
2026-04-18T20:09:15.514,10,69,161985,128901,83.0
2026-04-18T20:09:15.554,10,70,161985,128901,83.0
2026-04-18T20:09:15.593,10,71,161954,128847,83.0
2026-04-18T20:09:15.634,10,72,161954,128847,83.0
2026-04-18T20:09:15.674,10,73,161954,128847,83.0
2026-04-18T20:09:15.714,10,74,161954,128847,83.0
2026-04-18T20:09:15.753,10,75,161901,128686,83.0
2026-04-18T20:09:15.794,10,76,161901,128686,83.0
2026-04-18T20:09:15.834,10,77,161901,128686,83.0
2026-04-18T20:09:15.874,10,78,161901,128686,83.0
2026-04-18T20:09:15.914,10,79,161940,128608,83.0
2026-04-18T20:09:15.953,10,80,161940,128608,83.0
2026-04-18T20:09:15.993,10,81,161940,128608,83.0
2026-04-18T20:09:16.033,10,82,161940,128608,83.0
2026-04-18T20:09:16.073,10,83,162038,128735,83.0
2026-04-18T20:09:16.113,10,84,162038,128735,83.0
2026-04-18T20:09:16.153,10,85,162038,128735,83.0
2026-04-18T20:09:16.193,10,86,162038,128735,83.0
2026-04-18T20:09:16.233,10,87,161930,128587,83.0
2026-04-18T20:09:16.273,10,88,161930,128587,83.0
2026-04-18T20:09:16.313,10,89,161930,128587,83.0
2026-04-18T20:09:16.353,10,90,161930,128587,83.0
2026-04-18T20:09:16.393,10,91,161714,128152,83.0
2026-04-18T20:09:16.433,10,92,161714,128152,83.0
2026-04-18T20:09:16.473,10,93,161714,128152,83.0
2026-04-18T20:09:16.513,10,94,161714,128152,83.0
2026-04-18T20:09:16.553,10,95,161571,127853,83.0
2026-04-18T20:09:16.593,10,96,161571,127853,83.0
2026-04-18T20:09:16.633,10,97,161571,127853,83.0
2026-04-18T20:09:16.673,10,98,161571,127853,83.0
2026-04-18T20:09:16.712,10,99,161559,127904,83.0
2026-04-18T20:09:16.753,10,100,161559,127904,83.0
2026-04-18T20:09:16.792,10,101,161559,127904,83.0
2026-04-18T20:09:16.832,10,102,161559,127904,83.0
2026-04-18T20:09:16.872,10,103,161636,128196,83.0
2026-04-18T20:09:16.912,10,104,161636,128196,83.0
2026-04-18T20:09:16.952,10,105,161636,128196,83.0
2026-04-18T20:09:16.992,10,106,161636,128196,83.0
2026-04-18T20:09:17.033,10,107,161707,128414,83.0
2026-04-18T20:09:17.072,10,108,161707,128414,83.0
2026-04-18T20:09:17.112,10,109,161707,128414,83.0
2026-04-18T20:09:17.152,10,110,161707,128414,83.0
2026-04-18T20:09:17.192,10,111,161744,128487,83.0
2026-04-18T20:09:17.232,10,112,161744,128487,83.0
2026-04-18T20:09:17.272,10,113,161744,128487,83.0
2026-04-18T20:09:17.312,10,114,161744,128487,83.0
2026-04-18T20:09:17.352,10,115,161800,128571,83.0
2026-04-18T20:09:17.392,10,116,161800,128571,83.0
2026-04-18T20:09:17.432,10,117,161800,128571,83.0
2026-04-18T20:09:17.472,10,118,161800,128571,83.0
2026-04-18T20:09:17.512,10,119,161912,128811,83.0
2026-04-18T20:09:17.552,10,120,161912,128811,83.0
2026-04-18T20:09:17.591,10,121,161912,128811,83.0
2026-04-18T20:09:17.632,10,122,161912,128811,83.0
2026-04-18T20:09:17.671,10,123,162015,129149,83.0
2026-04-18T20:09:17.711,10,124,162015,129149,83.0
2026-04-18T20:09:17.751,10,125,162015,129149,83.0
2026-04-18T20:09:17.791,10,126,162015,129149,83.0
2026-04-18T20:09:17.831,10,127,162012,129112,83.0
2026-04-18T20:09:17.871,10,128,162012,129112,83.0
2026-04-18T20:09:17.911,10,129,162012,129112,83.0
2026-04-18T20:09:17.951,10,130,162012,129112,83.0
2026-04-18T20:09:17.991,10,131,161981,129058,83.0
2026-04-18T20:09:18.031,10,132,161981,129058,83.0
2026-04-18T20:09:18.071,10,133,161981,129058,83.0
2026-04-18T20:09:18.111,10,134,161981,129058,83.0
2026-04-18T20:09:18.151,10,135,162012,129005,83.0
2026-04-18T20:09:18.191,10,136,162012,129005,83.0
2026-04-18T20:09:18.231,10,137,162012,129005,83.0
2026-04-18T20:09:18.270,10,138,162012,129005,83.0
2026-04-18T20:09:18.310,10,139,162132,129182,83.0
2026-04-18T20:09:18.350,10,140,162132,129182,83.0
2026-04-18T20:09:18.391,10,141,162132,129182,83.0
2026-04-18T20:09:18.431,10,142,162132,129182,83.0
2026-04-18T20:09:18.470,10,143,162057,129046,83.0
2026-04-18T20:09:18.510,10,144,162057,129046,83.0
2026-04-18T20:09:18.550,10,145,162057,129046,83.0
2026-04-18T20:09:18.590,10,146,162057,129046,83.0
2026-04-18T20:09:18.630,10,147,161834,128542,83.0
2026-04-18T20:09:18.670,10,148,161834,128542,83.0
2026-04-18T20:09:18.710,10,149,161834,128542,83.0
2026-04-18T20:09:18.751,10,150,161834,128542,83.0
2026-04-18T20:09:18.790,10,151,161656,128161,83.0
2026-04-18T20:09:18.830,10,152,161656,128161,83.0
2026-04-18T20:09:18.870,10,153,161656,128161,83.0
2026-04-18T20:09:18.910,10,154,161656,128161,83.0
2026-04-18T20:09:18.950,10,155,161580,128003,83.0
2026-04-18T20:09:18.990,10,156,161580,128003,83.0
2026-04-18T20:09:19.030,10,157,161580,128003,83.0
2026-04-18T20:09:19.070,10,158,161580,128003,83.0
2026-04-18T20:09:19.110,10,159,161671,128336,83.0
2026-04-18T20:09:19.149,10,160,161671,128336,83.0
2026-04-18T20:09:19.189,10,161,161671,128336,83.0
2026-04-18T20:09:19.230,10,162,161671,128336,83.0
2026-04-18T20:09:19.269,10,163,161802,128740,83.0
2026-04-18T20:09:19.310,10,164,161802,128740,83.0
2026-04-18T20:09:19.350,10,165,161802,128740,83.0
2026-04-18T20:09:19.389,10,166,161802,128740,83.0
2026-04-18T20:09:19.429,10,167,161821,128786,83.0
2026-04-18T20:09:19.469,10,168,161821,128786,83.0
2026-04-18T20:09:19.509,10,169,161821,128786,83.0
2026-04-18T20:09:19.549,10,170,161821,128786,83.0
2026-04-18T20:09:19.589,10,171,161826,128809,83.0
2026-04-18T20:09:19.629,10,172,161826,128809,83.0
2026-04-18T20:09:19.669,10,173,161826,128809,83.0
2026-04-18T20:09:19.709,10,174,161826,128809,83.0
2026-04-18T20:09:19.749,10,175,161894,128877,83.0
2026-04-18T20:09:19.789,10,176,161894,128877,83.0
2026-04-18T20:09:19.829,10,177,161894,128877,83.0
2026-04-18T20:09:19.869,10,178,161894,128877,83.0
2026-04-18T20:09:19.909,10,179,161915,129058,83.0
2026-04-18T20:09:19.948,10,180,161915,129058,83.0
2026-04-18T20:09:19.988,10,181,161915,129058,83.0
2026-04-18T20:09:20.028,10,182,161915,129058,83.0
2026-04-18T20:09:20.068,10,183,161995,129329,83.0
2026-04-18T20:09:20.109,10,184,161995,129329,83.0
2026-04-18T20:09:20.148,10,185,161995,129329,83.0
2026-04-18T20:09:20.188,10,186,161995,129329,83.0
2026-04-18T20:09:20.229,10,187,161945,129237,83.0
2026-04-18T20:09:20.268,10,188,161945,129237,83.0
2026-04-18T20:09:20.308,10,189,161945,129237,83.0
2026-04-18T20:09:20.348,10,190,161945,129237,83.0
2026-04-18T20:09:20.388,10,191,161922,129146,83.0
2026-04-18T20:09:20.428,10,192,161922,129146,83.0
2026-04-18T20:09:20.468,10,193,161922,129146,83.0
2026-04-18T20:09:20.508,10,194,161922,129146,83.0
2026-04-18T20:09:20.547,10,195,162003,129186,83.0
2026-04-18T20:09:20.587,10,196,162003,129186,83.0
2026-04-18T20:09:20.628,10,197,162003,129186,83.0
2026-04-18T20:09:20.668,10,198,162003,129186,83.0
2026-04-18T20:09:20.708,10,199,161972,129149,83.0
2026-04-18T20:09:20.748,10,200,161972,129149,83.0
2026-04-18T20:09:20.788,10,201,161972,129149,83.0
2026-04-18T20:09:20.828,10,202,161972,129149,83.0
2026-04-18T20:09:20.868,10,203,161827,128873,83.0
