timestamp,window,sample,ir_raw,red_raw,true_hr
2026-04-18T20:00:05.922,1,0,153841,119009,81.0
2026-04-18T20:00:05.942,1,1,153841,119009,81.0
2026-04-18T20:00:05.961,1,2,153841,119009,81.0
2026-04-18T20:00:05.982,1,3,153925,119057,81.0
2026-04-18T20:00:06.002,1,4,153925,119057,81.0
2026-04-18T20:00:06.022,1,5,153925,119057,81.0
2026-04-18T20:00:06.042,1,6,153925,119057,81.0
2026-04-18T20:00:06.062,1,7,153962,119066,81.0
2026-04-18T20:00:06.082,1,8,153962,119066,81.0
2026-04-18T20:00:06.102,1,9,153962,119066,81.0
2026-04-18T20:00:06.121,1,10,153962,119066,81.0
2026-04-18T20:00:06.142,1,11,154025,119096,81.0
2026-04-18T20:00:06.161,1,12,154025,119096,81.0
2026-04-18T20:00:06.182,1,13,154025,119096,81.0
2026-04-18T20:00:06.201,1,14,154025,119096,81.0
2026-04-18T20:00:06.222,1,15,154121,119165,81.0
2026-04-18T20:00:06.242,1,16,154121,119165,81.0
2026-04-18T20:00:06.262,1,17,154121,119165,81.0
2026-04-18T20:00:06.282,1,18,154121,119165,81.0
2026-04-18T20:00:06.302,1,19,154194,119208,81.0
2026-04-18T20:00:06.322,1,20,154194,119208,81.0
2026-04-18T20:00:06.342,1,21,154194,119208,81.0
2026-04-18T20:00:06.361,1,22,154194,119208,81.0
2026-04-18T20:00:06.381,1,23,154235,119242,81.0
2026-04-18T20:00:06.401,1,24,154235,119242,81.0
2026-04-18T20:00:06.421,1,25,154235,119242,81.0
2026-04-18T20:00:06.442,1,26,154235,119242,81.0
2026-04-18T20:00:06.462,1,27,154269,119268,81.0
2026-04-18T20:00:06.482,1,28,154269,119268,81.0
2026-04-18T20:00:06.501,1,29,154269,119268,81.0
2026-04-18T20:00:06.521,1,30,154269,119268,81.0
2026-04-18T20:00:06.541,1,31,154315,119314,81.0
2026-04-18T20:00:06.561,1,32,154315,119314,81.0
2026-04-18T20:00:06.581,1,33,154315,119314,81.0
2026-04-18T20:00:06.601,1,34,154315,119314,81.0
2026-04-18T20:00:06.621,1,35,154313,119315,81.0
2026-04-18T20:00:06.641,1,36,154313,119315,81.0
2026-04-18T20:00:06.661,1,37,154313,119315,81.0
2026-04-18T20:00:06.681,1,38,154313,119315,81.0
2026-04-18T20:00:06.701,1,39,154316,119327,81.0
2026-04-18T20:00:06.721,1,40,154316,119327,81.0
2026-04-18T20:00:06.741,1,41,154316,119327,81.0
2026-04-18T20:00:06.761,1,42,154316,119327,81.0
2026-04-18T20:00:06.781,1,43,154311,119326,81.0
2026-04-18T20:00:06.801,1,44,154311,119326,81.0
2026-04-18T20:00:06.821,1,45,154311,119326,81.0
2026-04-18T20:00:06.841,1,46,154311,119326,81.0
2026-04-18T20:00:06.861,1,47,154288,119318,81.0
2026-04-18T20:00:06.881,1,48,154288,119318,81.0
2026-04-18T20:00:06.901,1,49,154288,119318,81.0
2026-04-18T20:00:06.921,1,50,154288,119318,81.0
2026-04-18T20:00:06.941,1,51,154279,119311,81.0
2026-04-18T20:00:06.960,1,52,154279,119311,81.0
2026-04-18T20:00:06.981,1,53,154279,119311,81.0
2026-04-18T20:00:07.000,1,54,154279,119311,81.0
2026-04-18T20:00:07.020,1,55,154267,119306,81.0
2026-04-18T20:00:07.041,1,56,154267,119306,81.0
2026-04-18T20:00:07.061,1,57,154267,119306,81.0
2026-04-18T20:00:07.081,1,58,154267,119306,81.0
2026-04-18T20:00:07.101,1,59,154241,119285,81.0
2026-04-18T20:00:07.120,1,60,154241,119285,81.0
2026-04-18T20:00:07.140,1,61,154241,119285,81.0
2026-04-18T20:00:07.160,1,62,154241,119285,81.0
2026-04-18T20:00:07.180,1,63,154244,119305,81.0
2026-04-18T20:00:07.200,1,64,154244,119305,81.0
2026-04-18T20:00:07.220,1,65,154244,119305,81.0
2026-04-18T20:00:07.241,1,66,154244,119305,81.0
2026-04-18T20:00:07.260,1,67,154246,119303,81.0
2026-04-18T20:00:07.281,1,68,154246,119303,81.0
2026-04-18T20:00:07.300,1,69,154246,119303,81.0
2026-04-18T20:00:07.321,1,70,154246,119303,81.0
2026-04-18T20:00:07.341,1,71,154240,119300,81.0
2026-04-18T20:00:07.360,1,72,154240,119300,81.0
2026-04-18T20:00:07.380,1,73,154240,119300,81.0
2026-04-18T20:00:07.400,1,74,154240,119300,81.0
2026-04-18T20:00:07.420,1,75,154249,119304,81.0
2026-04-18T20:00:07.440,1,76,154249,119304,81.0
2026-04-18T20:00:07.460,1,77,154249,119304,81.0
2026-04-18T20:00:07.480,1,78,154249,119304,81.0
2026-04-18T20:00:07.500,1,79,154336,119369,81.0
2026-04-18T20:00:07.520,1,80,154336,119369,81.0
2026-04-18T20:00:07.540,1,81,154336,119369,81.0
2026-04-18T20:00:07.560,1,82,154336,119369,81.0
2026-04-18T20:00:07.580,1,83,154467,119455,81.0
2026-04-18T20:00:07.600,1,84,154467,119455,81.0
2026-04-18T20:00:07.620,1,85,154467,119455,81.0
2026-04-18T20:00:07.640,1,86,154467,119455,81.0
2026-04-18T20:00:07.660,1,87,154469,119461,81.0
2026-04-18T20:00:07.680,1,88,154469,119461,81.0
2026-04-18T20:00:07.701,1,89,154469,119461,81.0
2026-04-18T20:00:07.720,1,90,154469,119461,81.0
2026-04-18T20:00:07.740,1,91,154517,119499,81.0
2026-04-18T20:00:07.760,1,92,154517,119499,81.0
2026-04-18T20:00:07.780,1,93,154517,119499,81.0
2026-04-18T20:00:07.800,1,94,154517,119499,81.0
2026-04-18T20:00:07.820,1,95,154518,119501,81.0
2026-04-18T20:00:07.840,1,96,154518,119501,81.0
2026-04-18T20:00:07.860,1,97,154518,119501,81.0
2026-04-18T20:00:07.880,1,98,154518,119501,81.0
2026-04-18T20:00:07.900,1,99,154481,119479,81.0
2026-04-18T20:00:07.920,1,100,154481,119479,81.0
2026-04-18T20:00:07.940,1,101,154481,119479,81.0
2026-04-18T20:00:07.960,1,102,154481,119479,81.0
2026-04-18T20:00:07.980,1,103,154434,119445,81.0
2026-04-18T20:00:08.000,1,104,154434,119445,81.0
2026-04-18T20:00:08.019,1,105,154434,119445,81.0
2026-04-18T20:00:08.040,1,106,154434,119445,81.0
2026-04-18T20:00:08.059,1,107,154512,119472,81.0
2026-04-18T20:00:08.080,1,108,154512,119472,81.0
2026-04-18T20:00:08.100,1,109,154512,119472,81.0
2026-04-18T20:00:08.120,1,110,154512,119472,81.0
2026-04-18T20:00:08.140,1,111,154584,119522,81.0
2026-04-18T20:00:08.160,1,112,154584,119522,81.0
2026-04-18T20:00:08.179,1,113,154584,119522,81.0
2026-04-18T20:00:08.199,1,114,154584,119522,81.0
2026-04-18T20:00:08.219,1,115,154640,119556,81.0
2026-04-18T20:00:08.239,1,116,154640,119556,81.0
2026-04-18T20:00:08.259,1,117,154640,119556,81.0
2026-04-18T20:00:08.279,1,118,154640,119556,81.0
2026-04-18T20:00:08.300,1,119,154689,119593,81.0
2026-04-18T20:00:08.319,1,120,154689,119593,81.0
2026-04-18T20:00:08.339,1,121,154689,119593,81.0
2026-04-18T20:00:08.360,1,122,154689,119593,81.0
2026-04-18T20:00:08.380,1,123,154740,119629,81.0
2026-04-18T20:00:08.399,1,124,154740,119629,81.0
2026-04-18T20:00:08.419,1,125,154740,119629,81.0
2026-04-18T20:00:08.439,1,126,154740,119629,81.0
2026-04-18T20:00:08.459,1,127,154772,119642,81.0
2026-04-18T20:00:08.479,1,128,154772,119642,81.0
2026-04-18T20:00:08.499,1,129,154772,119642,81.0
2026-04-18T20:00:08.519,1,130,154772,119642,81.0
2026-04-18T20:00:08.539,1,131,154769,119658,81.0
2026-04-18T20:00:08.559,1,132,154769,119658,81.0
2026-04-18T20:00:08.580,1,133,154769,119658,81.0
2026-04-18T20:00:08.600,1,134,154769,119658,81.0
2026-04-18T20:00:08.619,1,135,154770,119648,81.0
2026-04-18T20:00:08.639,1,136,154770,119648,81.0
2026-04-18T20:00:08.660,1,137,154770,119648,81.0
2026-04-18T20:00:08.679,1,138,154770,119648,81.0
2026-04-18T20:00:08.699,1,139,154773,119638,81.0
2026-04-18T20:00:08.719,1,140,154773,119638,81.0
2026-04-18T20:00:08.739,1,141,154773,119638,81.0
2026-04-18T20:00:08.759,1,142,154773,119638,81.0
2026-04-18T20:00:08.779,1,143,154761,119622,81.0
2026-04-18T20:00:08.799,1,144,154761,119622,81.0
2026-04-18T20:00:08.819,1,145,154761,119622,81.0
2026-04-18T20:00:08.839,1,146,154761,119622,81.0
2026-04-18T20:00:08.859,1,147,154743,119637,81.0
2026-04-18T20:00:08.879,1,148,154743,119637,81.0
2026-04-18T20:00:08.899,1,149,154743,119637,81.0
2026-04-18T20:00:08.918,1,150,154743,119637,81.0
2026-04-18T20:00:08.939,1,151,154739,119631,81.0
2026-04-18T20:00:08.958,1,152,154739,119631,81.0
2026-04-18T20:00:08.979,1,153,154739,119631,81.0
2026-04-18T20:00:08.999,1,154,154739,119631,81.0
2026-04-18T20:00:09.018,1,155,154753,119630,81.0
2026-04-18T20:00:09.039,1,156,154753,119630,81.0
2026-04-18T20:00:09.058,1,157,154753,119630,81.0
2026-04-18T20:00:09.078,1,158,154753,119630,81.0
2026-04-18T20:00:09.098,1,159,154751,119633,81.0
2026-04-18T20:00:09.118,1,160,154751,119633,81.0
2026-04-18T20:00:09.139,1,161,154751,119633,81.0
2026-04-18T20:00:09.158,1,162,154751,119633,81.0
2026-04-18T20:00:09.178,1,163,154759,119646,81.0
2026-04-18T20:00:09.198,1,164,154759,119646,81.0
2026-04-18T20:00:09.218,1,165,154759,119646,81.0
2026-04-18T20:00:09.238,1,166,154759,119646,81.0
2026-04-18T20:00:09.258,1,167,154757,119645,81.0
2026-04-18T20:00:09.278,1,168,154757,119645,81.0
2026-04-18T20:00:09.298,1,169,154757,119645,81.0
2026-04-18T20:00:09.318,1,170,154757,119645,81.0
2026-04-18T20:00:09.337,1,171,154764,119650,81.0
2026-04-18T20:00:09.357,1,172,154764,119650,81.0
2026-04-18T20:00:09.378,1,173,154764,119650,81.0
2026-04-18T20:00:09.398,1,174,154764,119650,81.0
2026-04-18T20:00:09.418,1,175,154778,119663,81.0
2026-04-18T20:00:09.438,1,176,154778,119663,81.0
2026-04-18T20:00:09.458,1,177,154778,119663,81.0
2026-04-18T20:00:09.478,1,178,154778,119663,81.0
2026-04-18T20:00:09.498,1,179,154770,119649,81.0
2026-04-18T20:00:09.518,1,180,154770,119649,81.0
2026-04-18T20:00:09.537,1,181,154770,119649,81.0
2026-04-18T20:00:09.558,1,182,154770,119649,81.0
2026-04-18T20:00:09.577,1,183,154757,119654,81.0
2026-04-18T20:00:09.598,1,184,154757,119654,81.0
2026-04-18T20:00:09.618,1,185,154757,119654,81.0
2026-04-18T20:00:09.638,1,186,154757,119654,81.0
2026-04-18T20:00:09.658,1,187,154754,119661,81.0
2026-04-18T20:00:09.678,1,188,154754,119661,81.0
2026-04-18T20:00:09.697,1,189,154754,119661,81.0
2026-04-18T20:00:09.717,1,190,154754,119661,81.0
2026-04-18T20:00:09.738,1,191,154749,119661,81.0
2026-04-18T20:00:09.757,1,192,154749,119661,81.0
2026-04-18T20:00:09.777,1,193,154749,119661,81.0
2026-04-18T20:00:09.798,1,194,154749,119661,81.0
2026-04-18T20:00:09.818,1,195,154753,119665,81.0
2026-04-18T20:00:09.837,1,196,154753,119665,81.0
2026-04-18T20:00:09.857,1,197,154753,119665,81.0
2026-04-18T20:00:09.877,1,198,154753,119665,81.0
2026-04-18T20:00:09.897,1,199,154760,119670,81.0
2026-04-18T20:00:09.917,1,200,154760,119670,81.0
2026-04-18T20:00:09.937,1,201,154760,119670,81.0
2026-04-18T20:00:09.957,1,202,154760,119670,81.0
2026-04-18T20:00:09.977,1,203,154773,119683,81.0
2026-04-18T20:00:09.997,1,204,154773,119683,81.0
2026-04-18T20:00:10.017,1,205,154773,119683,81.0
2026-04-18T20:00:10.037,1,206,154773,119683,81.0
2026-04-18T20:00:10.057,1,207,154770,119683,81.0
2026-04-18T20:00:10.077,1,208,154770,119683,81.0
2026-04-18T20:00:10.097,1,209,154770,119683,81.0
2026-04-18T20:00:10.117,1,210,154770,119683,81.0
2026-04-18T20:00:10.137,1,211,154761,119683,81.0
2026-04-18T20:00:10.157,1,212,154761,119683,81.0
2026-04-18T20:00:10.177,1,213,154761,119683,81.0
2026-04-18T20:00:10.197,1,214,154761,119683,81.0
2026-04-18T20:00:10.217,1,215,154748,119682,81.0
2026-04-18T20:00:10.236,1,216,154748,119682,81.0
2026-04-18T20:00:10.257,1,217,154748,119682,81.0
2026-04-18T20:00:10.277,1,218,154748,119682,81.0
2026-04-18T20:00:10.297,1,219,154757,119688,81.0
2026-04-18T20:00:10.316,1,220,154757,119688,81.0
2026-04-18T20:00:10.336,1,221,154757,119688,81.0
2026-04-18T20:00:10.356,1,222,154757,119688,81.0
2026-04-18T20:00:10.376,1,223,154760,119686,81.0
2026-04-18T20:00:10.397,1,224,154760,119686,81.0
2026-04-18T20:00:10.417,1,225,154760,119686,81.0
2026-04-18T20:00:10.437,1,226,154760,119686,81.0
2026-04-18T20:00:10.457,1,227,154756,119693,81.0
2026-04-18T20:00:10.477,1,228,154756,119693,81.0
2026-04-18T20:00:10.496,1,229,154756,119693,81.0
2026-04-18T20:00:10.517,1,230,154756,119693,81.0
2026-04-18T20:00:10.536,1,231,154770,119699,81.0
2026-04-18T20:00:10.557,1,232,154770,119699,81.0
2026-04-18T20:00:10.576,1,233,154770,119699,81.0
2026-04-18T20:00:10.596,1,234,154770,119699,81.0
2026-04-18T20:00:10.616,1,235,154784,119700,81.0
2026-04-18T20:00:10.636,1,236,154784,119700,81.0
2026-04-18T20:00:10.657,1,237,154784,119700,81.0
2026-04-18T20:00:10.677,1,238,154784,119700,81.0
2026-04-18T20:00:10.696,1,239,154780,119709,81.0
2026-04-18T20:00:10.716,1,240,154780,119709,81.0
2026-04-18T20:00:10.736,1,241,154780,119709,81.0
2026-04-18T20:00:10.756,1,242,154780,119709,81.0
2026-04-18T20:00:10.776,1,243,154775,119710,81.0
2026-04-18T20:00:10.797,1,244,154775,119710,81.0
2026-04-18T20:00:10.816,1,245,154775,119710,81.0
2026-04-18T20:00:10.836,1,246,154775,119710,81.0
2026-04-18T20:00:10.856,1,247,154777,119718,81.0
2026-04-18T20:00:10.876,1,248,154777,119718,81.0
2026-04-18T20:00:10.896,1,249,154777,119718,81.0
2026-04-18T20:00:10.916,1,250,154777,119718,81.0
2026-04-18T20:00:10.936,1,251,154807,119722,81.0
2026-04-18T20:00:10.956,1,252,154807,119722,81.0
2026-04-18T20:00:10.976,1,253,154807,119722,81.0
2026-04-18T20:00:10.996,1,254,154807,119722,81.0
2026-04-18T20:00:11.016,1,255,154830,119747,81.0
2026-04-18T20:00:11.036,1,256,154830,119747,81.0
2026-04-18T20:00:11.056,1,257,154830,119747,81.0
2026-04-18T20:00:11.076,1,258,154830,119747,81.0
2026-04-18T20:00:11.096,1,259,154863,119761,81.0
2026-04-18T20:00:11.116,1,260,154863,119761,81.0
2026-04-18T20:00:11.136,1,261,154863,119761,81.0
2026-04-18T20:00:11.155,1,262,154863,119761,81.0
2026-04-18T20:00:11.175,1,263,154878,119780,81.0
2026-04-18T20:00:11.196,1,264,154878,119780,81.0
2026-04-18T20:00:11.216,1,265,154878,119780,81.0
2026-04-18T20:00:11.235,1,266,154878,119780,81.0
2026-04-18T20:00:11.255,1,267,154907,119781,81.0
2026-04-18T20:00:11.275,1,268,154907,119781,81.0
2026-04-18T20:00:11.295,1,269,154907,119781,81.0
2026-04-18T20:00:11.316,1,270,154907,119781,81.0
2026-04-18T20:00:11.336,1,271,154915,119794,81.0
2026-04-18T20:00:11.355,1,272,154915,119794,81.0
2026-04-18T20:00:11.375,1,273,154915,119794,81.0
2026-04-18T20:00:11.396,1,274,154915,119794,81.0
2026-04-18T20:00:11.415,1,275,154916,119799,81.0
2026-04-18T20:00:11.435,1,276,154916,119799,81.0
2026-04-18T20:00:11.456,1,277,154916,119799,81.0
2026-04-18T20:00:11.476,1,278,154916,119799,81.0
2026-04-18T20:00:11.495,1,279,154891,119791,81.0
2026-04-18T20:00:11.515,1,280,154891,119791,81.0
2026-04-18T20:00:11.535,1,281,154891,119791,81.0
2026-04-18T20:00:11.555,1,282,154891,119791,81.0
2026-04-18T20:00:11.575,1,283,154898,119794,81.0
2026-04-18T20:00:11.594,1,284,154898,119794,81.0
2026-04-18T20:00:11.615,1,285,154898,119794,81.0
2026-04-18T20:00:11.635,1,286,154898,119794,81.0
2026-04-18T20:00:11.655,1,287,154885,119786,81.0
2026-04-18T20:00:11.675,1,288,154885,119786,81.0
2026-04-18T20:00:11.695,1,289,154885,119786,81.0
2026-04-18T20:00:11.715,1,290,154885,119786,81.0
2026-04-18T20:00:11.735,1,291,154881,119789,81.0
2026-04-18T20:00:11.755,1,292,154881,119789,81.0
2026-04-18T20:00:11.775,1,293,154881,119789,81.0
2026-04-18T20:00:11.795,1,294,154881,119789,81.0
2026-04-18T20:00:11.815,1,295,154883,119780,81.0
2026-04-18T20:00:11.834,1,296,154883,119780,81.0
2026-04-18T20:00:11.855,1,297,154883,119780,81.0
2026-04-18T20:00:11.875,1,298,154883,119780,81.0
2026-04-18T20:00:11.895,1,299,154902,119783,81.0
2026-04-18T20:00:11.915,1,300,154902,119783,81.0
2026-04-18T20:00:11.935,1,301,154902,119783,81.0
2026-04-18T20:00:11.955,1,302,154902,119783,81.0
2026-04-18T20:00:11.975,1,303,154884,119780,81.0
2026-04-18T20:00:11.995,1,304,154884,119780,81.0
2026-04-18T20:00:12.015,1,305,154884,119780,81.0
2026-04-18T20:00:12.035,1,306,154884,119780,81.0
2026-04-18T20:00:12.055,1,307,154879,119779,81.0
2026-04-18T20:00:12.075,1,308,154879,119779,81.0
2026-04-18T20:00:12.094,1,309,154879,119779,81.0
2026-04-18T20:00:12.115,1,310,154879,119779,81.0
2026-04-18T20:00:12.135,1,311,154876,119779,81.0
2026-04-18T20:00:12.155,1,312,154876,119779,81.0
2026-04-18T20:00:12.175,1,313,154876,119779,81.0
2026-04-18T20:00:12.194,1,314,154876,119779,81.0
2026-04-18T20:00:12.214,1,315,154869,119788,81.0
2026-04-18T20:00:12.234,1,316,154869,119788,81.0
2026-04-18T20:00:12.254,1,317,154869,119788,81.0
2026-04-18T20:00:12.274,1,318,154869,119788,81.0
2026-04-18T20:00:12.294,1,319,154879,119794,81.0
2026-04-18T20:00:12.314,1,320,154879,119794,81.0
2026-04-18T20:00:12.334,1,321,154879,119794,81.0
2026-04-18T20:00:12.354,1,322,154879,119794,81.0
2026-04-18T20:00:12.374,1,323,154869,119782,81.0
2026-04-18T20:00:12.394,1,324,154869,119782,81.0
2026-04-18T20:00:12.414,1,325,154869,119782,81.0
2026-04-18T20:00:12.434,1,326,154869,119782,81.0
2026-04-18T20:00:12.454,1,327,154868,119782,81.0
2026-04-18T20:00:12.474,1,328,154868,119782,81.0
2026-04-18T20:00:12.494,1,329,154868,119782,81.0
2026-04-18T20:00:12.514,1,330,154868,119782,81.0
2026-04-18T20:00:12.534,1,331,154877,119781,81.0
2026-04-18T20:00:12.554,1,332,154877,119781,81.0
2026-04-18T20:00:12.574,1,333,154877,119781,81.0
2026-04-18T20:00:12.594,1,334,154877,119781,81.0
2026-04-18T20:00:12.614,1,335,154880,119789,81.0
2026-04-18T20:00:12.634,1,336,154880,119789,81.0
2026-04-18T20:00:12.654,1,337,154880,119789,81.0
2026-04-18T20:00:12.674,1,338,154880,119789,81.0
2026-04-18T20:00:12.695,1,339,154868,119797,81.0
2026-04-18T20:00:12.714,1,340,154868,119797,81.0
2026-04-18T20:00:12.734,1,341,154868,119797,81.0
2026-04-18T20:00:12.753,1,342,154868,119797,81.0
2026-04-18T20:00:12.774,1,343,154860,119789,81.0
2026-04-18T20:00:12.794,1,344,154860,119789,81.0
2026-04-18T20:00:12.814,1,345,154860,119789,81.0
2026-04-18T20:00:12.834,1,346,154860,119789,81.0
2026-04-18T20:00:12.854,1,347,154854,119782,81.0
2026-04-18T20:00:12.874,1,348,154854,119782,81.0
2026-04-18T20:00:12.894,1,349,154854,119782,81.0
2026-04-18T20:00:12.913,1,350,154854,119782,81.0
2026-04-18T20:00:12.934,1,351,154854,119790,81.0
2026-04-18T20:00:12.953,1,352,154854,119790,81.0
2026-04-18T20:00:12.974,1,353,154854,119790,81.0
2026-04-18T20:00:12.994,1,354,154854,119790,81.0
2026-04-18T20:00:13.013,1,355,154851,119790,81.0
2026-04-18T20:00:13.034,1,356,154851,119790,81.0
2026-04-18T20:00:13.053,1,357,154851,119790,81.0
2026-04-18T20:00:13.073,1,358,154851,119790,81.0
2026-04-18T20:00:13.094,1,359,154850,119782,81.0
2026-04-18T20:00:13.113,1,360,154850,119782,81.0
2026-04-18T20:00:13.134,1,361,154850,119782,81.0
2026-04-18T20:00:13.153,1,362,154850,119782,81.0
2026-04-18T20:00:13.174,1,363,154849,119793,81.0
2026-04-18T20:00:13.193,1,364,154849,119793,81.0
2026-04-18T20:00:13.213,1,365,154849,119793,81.0
2026-04-18T20:00:13.233,1,366,154849,119793,81.0
2026-04-18T20:00:13.253,1,367,154865,119795,81.0
2026-04-18T20:00:13.273,1,368,154865,119795,81.0
2026-04-18T20:00:13.293,1,369,154865,119795,81.0
2026-04-18T20:00:13.312,1,370,154865,119795,81.0
2026-04-18T20:00:13.332,1,371,154863,119800,81.0
2026-04-18T20:00:13.352,1,372,154863,119800,81.0
2026-04-18T20:00:13.373,1,373,154863,119800,81.0
2026-04-18T20:00:13.393,1,374,154863,119800,81.0
2026-04-18T20:00:13.413,1,375,154866,119789,81.0
2026-04-18T20:00:13.433,1,376,154866,119789,81.0
2026-04-18T20:00:13.453,1,377,154866,119789,81.0
2026-04-18T20:00:13.473,1,378,154866,119789,81.0
2026-04-18T20:00:13.493,1,379,154847,119789,81.0
2026-04-18T20:00:13.512,1,380,154847,119789,81.0
2026-04-18T20:00:13.532,1,381,154847,119789,81.0
2026-04-18T20:00:13.553,1,382,154847,119789,81.0
2026-04-18T20:00:13.573,1,383,154824,119784,81.0
2026-04-18T20:00:13.593,1,384,154824,119784,81.0
2026-04-18T20:00:13.613,1,385,154824,119784,81.0
2026-04-18T20:00:13.633,1,386,154824,119784,81.0
2026-04-18T20:00:13.653,1,387,154820,119787,81.0
2026-04-18T20:00:13.672,1,388,154820,119787,81.0
2026-04-18T20:00:13.693,1,389,154820,119787,81.0
2026-04-18T20:00:13.712,1,390,154820,119787,81.0
2026-04-18T20:00:13.733,1,391,154817,119788,81.0
2026-04-18T20:00:13.752,1,392,154817,119788,81.0
2026-04-18T20:00:13.772,1,393,154817,119788,81.0
2026-04-18T20:00:13.792,1,394,154817,119788,81.0
2026-04-18T20:00:13.812,1,395,154825,119792,81.0
2026-04-18T20:00:13.832,1,396,154825,119792,81.0
2026-04-18T20:00:13.852,1,397,154825,119792,81.0
2026-04-18T20:00:13.872,1,398,154825,119792,81.0
2026-04-18T20:00:13.893,1,399,154841,119800,81.0
2026-04-18T20:00:13.912,1,400,154841,119800,81.0
2026-04-18T20:00:13.932,1,401,154841,119800,81.0
2026-04-18T20:00:13.952,1,402,154841,119800,81.0
2026-04-18T20:00:13.972,1,403,154862,119804,81.0
2026-04-18T20:00:13.992,1,404,154862,119804,81.0
2026-04-18T20:00:14.012,1,405,154862,119804,81.0
2026-04-18T20:00:14.032,1,406,154862,119804,81.0
2026-04-18T20:00:14.052,1,407,154891,119807,81.0
2026-04-18T20:00:14.072,1,408,154891,119807,81.0
2026-04-18T20:00:14.092,1,409,154891,119807,81.0
2026-04-18T20:00:14.112,1,410,154891,119807,81.0
2026-04-18T20:00:14.132,1,411,154886,119809,81.0
2026-04-18T20:00:14.152,1,412,154886,119809,81.0
2026-04-18T20:00:14.172,1,413,154886,119809,81.0
2026-04-18T20:00:14.192,1,414,154886,119809,81.0
2026-04-18T20:00:14.212,1,415,154868,119820,81.0
2026-04-18T20:00:14.232,1,416,154868,119820,81.0
2026-04-18T20:00:14.252,1,417,154868,119820,81.0
2026-04-18T20:00:14.272,1,418,154868,119820,81.0
2026-04-18T20:00:14.291,1,419,154828,119809,81.0
2026-04-18T20:00:14.311,1,420,154828,119809,81.0
2026-04-18T20:00:14.332,1,421,154828,119809,81.0
2026-04-18T20:00:14.351,1,422,154828,119809,81.0
2026-04-18T20:00:14.372,1,423,154826,119800,81.0
2026-04-18T20:00:14.392,1,424,154826,119800,81.0
2026-04-18T20:00:14.412,1,425,154826,119800,81.0
2026-04-18T20:00:14.432,1,426,154826,119800,81.0
2026-04-18T20:00:14.452,1,427,154809,119808,81.0
2026-04-18T20:00:14.472,1,428,154809,119808,81.0
2026-04-18T20:00:14.492,1,429,154809,119808,81.0
2026-04-18T20:00:14.511,1,430,154809,119808,81.0
2026-04-18T20:00:14.532,1,431,154803,119812,81.0
2026-04-18T20:00:14.551,1,432,154803,119812,81.0
2026-04-18T20:00:14.571,1,433,154803,119812,81.0
2026-04-18T20:00:14.592,1,434,154803,119812,81.0
2026-04-18T20:00:14.612,1,435,154808,119809,81.0
2026-04-18T20:00:14.632,1,436,154808,119809,81.0
2026-04-18T20:00:14.651,1,437,154808,119809,81.0
2026-04-18T20:00:14.672,1,438,154808,119809,81.0
2026-04-18T20:00:14.692,1,439,154792,119803,81.0
2026-04-18T20:00:14.711,1,440,154792,119803,81.0
2026-04-18T20:00:14.732,1,441,154792,119803,81.0
2026-04-18T20:00:14.751,1,442,154792,119803,81.0
2026-04-18T20:00:14.771,1,443,154814,119811,81.0
2026-04-18T20:00:14.791,1,444,154814,119811,81.0
2026-04-18T20:00:14.811,1,445,154814,119811,81.0
2026-04-18T20:00:14.831,1,446,154814,119811,81.0
2026-04-18T20:00:14.851,1,447,154807,119806,81.0
2026-04-18T20:00:14.871,1,448,154807,119806,81.0
2026-04-18T20:00:14.891,1,449,154807,119806,81.0
2026-04-18T20:00:14.911,1,450,154807,119806,81.0
2026-04-18T20:00:14.931,1,451,154772,119797,81.0
2026-04-18T20:00:14.951,1,452,154772,119797,81.0
2026-04-18T20:00:14.971,1,453,154772,119797,81.0
2026-04-18T20:00:14.991,1,454,154772,119797,81.0
2026-04-18T20:00:15.011,1,455,154707,119766,81.0
2026-04-18T20:00:15.031,1,456,154707,119766,81.0
2026-04-18T20:00:15.051,1,457,154707,119766,81.0
2026-04-18T20:00:15.071,1,458,154707,119766,81.0
2026-04-18T20:00:15.091,1,459,154684,119737,81.0
2026-04-18T20:00:15.111,1,460,154684,119737,81.0
2026-04-18T20:00:15.131,1,461,154684,119737,81.0
2026-04-18T20:00:15.151,1,462,154684,119737,81.0
2026-04-18T20:00:15.170,1,463,154681,119749,81.0
2026-04-18T20:00:15.190,1,464,154681,119749,81.0
2026-04-18T20:00:15.210,1,465,154681,119749,81.0
2026-04-18T20:00:15.231,1,466,154681,119749,81.0
2026-04-18T20:00:15.251,1,467,154707,119765,81.0
2026-04-18T20:00:15.270,1,468,154707,119765,81.0
2026-04-18T20:00:15.291,1,469,154707,119765,81.0
2026-04-18T20:00:15.311,1,470,154707,119765,81.0
2026-04-18T20:00:15.331,1,471,154682,119754,81.0
2026-04-18T20:00:15.350,1,472,154682,119754,81.0
2026-04-18T20:00:15.370,1,473,154682,119754,81.0
2026-04-18T20:00:15.390,1,474,154682,119754,81.0
2026-04-18T20:00:15.410,1,475,154651,119726,81.0
2026-04-18T20:00:15.430,1,476,154651,119726,81.0
2026-04-18T20:00:15.450,1,477,154651,119726,81.0
2026-04-18T20:00:15.470,1,478,154651,119726,81.0
2026-04-18T20:00:15.491,1,479,154622,119716,81.0
2026-04-18T20:00:15.510,1,480,154622,119716,81.0
2026-04-18T20:00:15.530,1,481,154622,119716,81.0
2026-04-18T20:00:15.550,1,482,154622,119716,81.0
2026-04-18T20:00:15.570,1,483,154585,119702,81.0
2026-04-18T20:00:15.590,1,484,154585,119702,81.0
2026-04-18T20:00:15.610,1,485,154585,119702,81.0
2026-04-18T20:00:15.630,1,486,154585,119702,81.0
2026-04-18T20:00:15.650,1,487,154575,119683,81.0
2026-04-18T20:00:15.670,1,488,154575,119683,81.0
2026-04-18T20:00:15.690,1,489,154575,119683,81.0
2026-04-18T20:00:15.710,1,490,154575,119683,81.0
2026-04-18T20:00:15.730,1,491,154569,119692,81.0
2026-04-18T20:00:15.750,1,492,154569,119692,81.0
2026-04-18T20:00:15.770,1,493,154569,119692,81.0
2026-04-18T20:00:15.790,1,494,154569,119692,81.0
2026-04-18T20:00:15.810,1,495,154551,119684,81.0
2026-04-18T20:00:15.830,1,496,154551,119684,81.0
2026-04-18T20:00:15.850,1,497,154551,119684,81.0
2026-04-18T20:00:15.870,1,498,154551,119684,81.0
2026-04-18T20:00:15.890,1,499,154579,119699,81.0
2026-04-18T20:00:15.910,1,500,154579,119699,81.0
2026-04-18T20:00:15.930,1,501,154579,119699,81.0
2026-04-18T20:00:22.062,2,0,154649,119583,79.0
2026-04-18T20:00:22.082,2,1,154649,119583,79.0
2026-04-18T20:00:22.102,2,2,154649,119583,79.0
2026-04-18T20:00:22.122,2,3,154663,119602,79.0
2026-04-18T20:00:22.142,2,4,154663,119602,79.0
2026-04-18T20:00:22.162,2,5,154663,119602,79.0
2026-04-18T20:00:22.182,2,6,154663,119602,79.0
2026-04-18T20:00:22.202,2,7,154688,119618,79.0
2026-04-18T20:00:22.222,2,8,154688,119618,79.0
2026-04-18T20:00:22.242,2,9,154688,119618,79.0
2026-04-18T20:00:22.262,2,10,154688,119618,79.0
2026-04-18T20:00:22.282,2,11,154711,119626,79.0
2026-04-18T20:00:22.302,2,12,154711,119626,79.0
2026-04-18T20:00:22.322,2,13,154711,119626,79.0
2026-04-18T20:00:22.342,2,14,154711,119626,79.0
2026-04-18T20:00:22.362,2,15,154727,119642,79.0
2026-04-18T20:00:22.382,2,16,154727,119642,79.0
2026-04-18T20:00:22.402,2,17,154727,119642,79.0
2026-04-18T20:00:22.422,2,18,154727,119642,79.0
2026-04-18T20:00:22.442,2,19,154793,119677,79.0
2026-04-18T20:00:22.462,2,20,154793,119677,79.0
2026-04-18T20:00:22.482,2,21,154793,119677,79.0
2026-04-18T20:00:22.502,2,22,154793,119677,79.0
2026-04-18T20:00:22.522,2,23,154805,119701,79.0
2026-04-18T20:00:22.542,2,24,154805,119701,79.0
2026-04-18T20:00:22.561,2,25,154805,119701,79.0
2026-04-18T20:00:22.582,2,26,154805,119701,79.0
2026-04-18T20:00:22.601,2,27,154816,119715,79.0
2026-04-18T20:00:22.621,2,28,154816,119715,79.0
2026-04-18T20:00:22.641,2,29,154816,119715,79.0
2026-04-18T20:00:22.661,2,30,154816,119715,79.0
2026-04-18T20:00:22.681,2,31,154821,119718,79.0
2026-04-18T20:00:22.701,2,32,154821,119718,79.0
2026-04-18T20:00:22.721,2,33,154821,119718,79.0
2026-04-18T20:00:22.741,2,34,154821,119718,79.0
2026-04-18T20:00:22.761,2,35,154842,119737,79.0
2026-04-18T20:00:22.781,2,36,154842,119737,79.0
2026-04-18T20:00:22.801,2,37,154842,119737,79.0
2026-04-18T20:00:22.821,2,38,154842,119737,79.0
2026-04-18T20:00:22.841,2,39,154829,119740,79.0
2026-04-18T20:00:22.861,2,40,154829,119740,79.0
2026-04-18T20:00:22.881,2,41,154829,119740,79.0
2026-04-18T20:00:22.901,2,42,154829,119740,79.0
2026-04-18T20:00:22.921,2,43,154828,119732,79.0
2026-04-18T20:00:22.941,2,44,154828,119732,79.0
2026-04-18T20:00:22.961,2,45,154828,119732,79.0
2026-04-18T20:00:22.981,2,46,154828,119732,79.0
2026-04-18T20:00:23.001,2,47,154832,119742,79.0
2026-04-18T20:00:23.022,2,48,154832,119742,79.0
2026-04-18T20:00:23.042,2,49,154832,119742,79.0
2026-04-18T20:00:23.061,2,50,154832,119742,79.0
2026-04-18T20:00:23.081,2,51,154829,119735,79.0
2026-04-18T20:00:23.101,2,52,154829,119735,79.0
2026-04-18T20:00:23.121,2,53,154829,119735,79.0
2026-04-18T20:00:23.141,2,54,154829,119735,79.0
2026-04-18T20:00:23.161,2,55,154846,119747,79.0
2026-04-18T20:00:23.181,2,56,154846,119747,79.0
2026-04-18T20:00:23.201,2,57,154846,119747,79.0
2026-04-18T20:00:23.221,2,58,154846,119747,79.0
2026-04-18T20:00:23.241,2,59,154872,119741,79.0
2026-04-18T20:00:23.261,2,60,154872,119741,79.0
2026-04-18T20:00:23.281,2,61,154872,119741,79.0
2026-04-18T20:00:23.301,2,62,154872,119741,79.0
2026-04-18T20:00:23.321,2,63,154855,119744,79.0
2026-04-18T20:00:23.341,2,64,154855,119744,79.0
2026-04-18T20:00:23.361,2,65,154855,119744,79.0
2026-04-18T20:00:23.381,2,66,154855,119744,79.0
2026-04-18T20:00:23.401,2,67,154855,119741,79.0
2026-04-18T20:00:23.421,2,68,154855,119741,79.0
2026-04-18T20:00:23.441,2,69,154855,119741,79.0
2026-04-18T20:00:23.461,2,70,154855,119741,79.0
2026-04-18T20:00:23.481,2,71,154844,119740,79.0
2026-04-18T20:00:23.501,2,72,154844,119740,79.0
2026-04-18T20:00:23.521,2,73,154844,119740,79.0
2026-04-18T20:00:23.541,2,74,154844,119740,79.0
2026-04-18T20:00:23.561,2,75,154850,119750,79.0
2026-04-18T20:00:23.581,2,76,154850,119750,79.0
2026-04-18T20:00:23.600,2,77,154850,119750,79.0
2026-04-18T20:00:23.620,2,78,154850,119750,79.0
2026-04-18T20:00:23.640,2,79,154849,119759,79.0
2026-04-18T20:00:23.660,2,80,154849,119759,79.0
2026-04-18T20:00:23.680,2,81,154849,119759,79.0
2026-04-18T20:00:23.700,2,82,154849,119759,79.0
2026-04-18T20:00:23.720,2,83,154862,119761,79.0
2026-04-18T20:00:23.741,2,84,154862,119761,79.0
2026-04-18T20:00:23.760,2,85,154862,119761,79.0
2026-04-18T20:00:23.780,2,86,154862,119761,79.0
2026-04-18T20:00:23.800,2,87,154860,119770,79.0
2026-04-18T20:00:23.820,2,88,154860,119770,79.0
2026-04-18T20:00:23.841,2,89,154860,119770,79.0
2026-04-18T20:00:23.860,2,90,154860,119770,79.0
2026-04-18T20:00:23.880,2,91,154878,119764,79.0
2026-04-18T20:00:23.900,2,92,154878,119764,79.0
2026-04-18T20:00:23.920,2,93,154878,119764,79.0
2026-04-18T20:00:23.940,2,94,154878,119764,79.0
2026-04-18T20:00:23.960,2,95,154887,119776,79.0
2026-04-18T20:00:23.980,2,96,154887,119776,79.0
2026-04-18T20:00:24.000,2,97,154887,119776,79.0
2026-04-18T20:00:24.020,2,98,154887,119776,79.0
2026-04-18T20:00:24.040,2,99,154896,119777,79.0
2026-04-18T20:00:24.060,2,100,154896,119777,79.0
2026-04-18T20:00:24.080,2,101,154896,119777,79.0
2026-04-18T20:00:24.099,2,102,154896,119777,79.0
2026-04-18T20:00:24.119,2,103,154914,119785,79.0
2026-04-18T20:00:24.140,2,104,154914,119785,79.0
2026-04-18T20:00:24.160,2,105,154914,119785,79.0
2026-04-18T20:00:24.180,2,106,154914,119785,79.0
2026-04-18T20:00:24.200,2,107,154918,119783,79.0
2026-04-18T20:00:24.219,2,108,154918,119783,79.0
2026-04-18T20:00:24.239,2,109,154918,119783,79.0
2026-04-18T20:00:24.259,2,110,154918,119783,79.0
2026-04-18T20:00:24.279,2,111,154954,119812,79.0
2026-04-18T20:00:24.300,2,112,154954,119812,79.0
2026-04-18T20:00:24.320,2,113,154954,119812,79.0
2026-04-18T20:00:24.340,2,114,154954,119812,79.0
2026-04-18T20:00:24.360,2,115,154966,119819,79.0
2026-04-18T20:00:24.380,2,116,154966,119819,79.0
2026-04-18T20:00:24.399,2,117,154966,119819,79.0
2026-04-18T20:00:24.419,2,118,154966,119819,79.0
2026-04-18T20:00:24.440,2,119,154974,119828,79.0
2026-04-18T20:00:24.459,2,120,154974,119828,79.0
2026-04-18T20:00:24.479,2,121,154974,119828,79.0
2026-04-18T20:00:24.500,2,122,154974,119828,79.0
2026-04-18T20:00:24.519,2,123,155001,119843,79.0
2026-04-18T20:00:24.539,2,124,155001,119843,79.0
2026-04-18T20:00:24.559,2,125,155001,119843,79.0
2026-04-18T20:00:24.579,2,126,155001,119843,79.0
2026-04-18T20:00:24.599,2,127,155004,119838,79.0
2026-04-18T20:00:24.619,2,128,155004,119838,79.0
2026-04-18T20:00:24.639,2,129,155004,119838,79.0
2026-04-18T20:00:24.659,2,130,155004,119838,79.0
2026-04-18T20:00:24.679,2,131,155034,119858,79.0
2026-04-18T20:00:24.699,2,132,155034,119858,79.0
2026-04-18T20:00:24.718,2,133,155034,119858,79.0
2026-04-18T20:00:24.739,2,134,155034,119858,79.0
2026-04-18T20:00:24.759,2,135,155047,119868,79.0
2026-04-18T20:00:24.779,2,136,155047,119868,79.0
2026-04-18T20:00:24.799,2,137,155047,119868,79.0
2026-04-18T20:00:24.819,2,138,155047,119868,79.0
2026-04-18T20:00:24.838,2,139,155051,119860,79.0
2026-04-18T20:00:24.858,2,140,155051,119860,79.0
2026-04-18T20:00:24.878,2,141,155051,119860,79.0
2026-04-18T20:00:24.898,2,142,155051,119860,79.0
2026-04-18T20:00:24.918,2,143,155036,119860,79.0
2026-04-18T20:00:24.939,2,144,155036,119860,79.0
2026-04-18T20:00:24.959,2,145,155036,119860,79.0
2026-04-18T20:00:24.978,2,146,155036,119860,79.0
2026-04-18T20:00:24.999,2,147,155022,119847,79.0
2026-04-18T20:00:25.018,2,148,155022,119847,79.0
2026-04-18T20:00:25.038,2,149,155022,119847,79.0
2026-04-18T20:00:25.059,2,150,155022,119847,79.0
2026-04-18T20:00:25.079,2,151,155027,119836,79.0
2026-04-18T20:00:25.099,2,152,155027,119836,79.0
2026-04-18T20:00:25.118,2,153,155027,119836,79.0
2026-04-18T20:00:25.139,2,154,155027,119836,79.0
2026-04-18T20:00:25.159,2,155,155009,119835,79.0
2026-04-18T20:00:25.178,2,156,155009,119835,79.0
2026-04-18T20:00:25.198,2,157,155009,119835,79.0
2026-04-18T20:00:25.219,2,158,155009,119835,79.0
2026-04-18T20:00:25.239,2,159,155001,119819,79.0
2026-04-18T20:00:25.258,2,160,155001,119819,79.0
2026-04-18T20:00:25.278,2,161,155001,119819,79.0
2026-04-18T20:00:25.298,2,162,155001,119819,79.0
2026-04-18T20:00:25.318,2,163,154987,119818,79.0
2026-04-18T20:00:25.338,2,164,154987,119818,79.0
2026-04-18T20:00:25.358,2,165,154987,119818,79.0
2026-04-18T20:00:25.378,2,166,154987,119818,79.0
2026-04-18T20:00:25.398,2,167,154994,119818,79.0
2026-04-18T20:00:25.419,2,168,154994,119818,79.0
2026-04-18T20:00:25.438,2,169,154994,119818,79.0
2026-04-18T20:00:25.458,2,170,154994,119818,79.0
2026-04-18T20:00:25.478,2,171,154994,119799,79.0
2026-04-18T20:00:25.498,2,172,154994,119799,79.0
2026-04-18T20:00:25.518,2,173,154994,119799,79.0
2026-04-18T20:00:25.538,2,174,154994,119799,79.0
2026-04-18T20:00:25.558,2,175,154982,119803,79.0
2026-04-18T20:00:25.579,2,176,154982,119803,79.0
2026-04-18T20:00:25.598,2,177,154982,119803,79.0
2026-04-18T20:00:25.618,2,178,154982,119803,79.0
2026-04-18T20:00:25.638,2,179,154977,119799,79.0
2026-04-18T20:00:25.658,2,180,154977,119799,79.0
2026-04-18T20:00:25.678,2,181,154977,119799,79.0
2026-04-18T20:00:25.697,2,182,154977,119799,79.0
2026-04-18T20:00:25.717,2,183,154964,119787,79.0
2026-04-18T20:00:25.738,2,184,154964,119787,79.0
2026-04-18T20:00:25.757,2,185,154964,119787,79.0
2026-04-18T20:00:25.778,2,186,154964,119787,79.0
2026-04-18T20:00:25.798,2,187,154966,119798,79.0
2026-04-18T20:00:25.818,2,188,154966,119798,79.0
2026-04-18T20:00:25.838,2,189,154966,119798,79.0
2026-04-18T20:00:25.858,2,190,154966,119798,79.0
2026-04-18T20:00:25.878,2,191,154969,119800,79.0
2026-04-18T20:00:25.897,2,192,154969,119800,79.0
2026-04-18T20:00:25.918,2,193,154969,119800,79.0
2026-04-18T20:00:25.938,2,194,154969,119800,79.0
2026-04-18T20:00:25.958,2,195,154993,119802,79.0
2026-04-18T20:00:25.978,2,196,154993,119802,79.0
2026-04-18T20:00:25.998,2,197,154993,119802,79.0
2026-04-18T20:00:26.018,2,198,154993,119802,79.0
2026-04-18T20:00:26.038,2,199,154995,119813,79.0
2026-04-18T20:00:26.057,2,200,154995,119813,79.0
2026-04-18T20:00:26.078,2,201,154995,119813,79.0
2026-04-18T20:00:26.098,2,202,154995,119813,79.0
2026-04-18T20:00:26.117,2,203,155005,119809,79.0
2026-04-18T20:00:26.138,2,204,155005,119809,79.0
2026-04-18T20:00:26.158,2,205,155005,119809,79.0
2026-04-18T20:00:26.177,2,206,155005,119809,79.0
2026-04-18T20:00:26.197,2,207,155012,119812,79.0
2026-04-18T20:00:26.217,2,208,155012,119812,79.0
2026-04-18T20:00:26.238,2,209,155012,119812,79.0
2026-04-18T20:00:26.257,2,210,155012,119812,79.0
2026-04-18T20:00:26.277,2,211,155029,119822,79.0
2026-04-18T20:00:26.297,2,212,155029,119822,79.0
2026-04-18T20:00:26.317,2,213,155029,119822,79.0
2026-04-18T20:00:26.337,2,214,155029,119822,79.0
2026-04-18T20:00:26.357,2,215,155028,119816,79.0
2026-04-18T20:00:26.377,2,216,155028,119816,79.0
2026-04-18T20:00:26.397,2,217,155028,119816,79.0
2026-04-18T20:00:26.417,2,218,155028,119816,79.0
2026-04-18T20:00:26.437,2,219,155011,119809,79.0
2026-04-18T20:00:26.457,2,220,155011,119809,79.0
2026-04-18T20:00:26.477,2,221,155011,119809,79.0
2026-04-18T20:00:26.497,2,222,155011,119809,79.0
2026-04-18T20:00:26.517,2,223,155005,119813,79.0
2026-04-18T20:00:26.537,2,224,155005,119813,79.0
2026-04-18T20:00:26.557,2,225,155005,119813,79.0
2026-04-18T20:00:26.577,2,226,155005,119813,79.0
2026-04-18T20:00:26.597,2,227,155011,119807,79.0
2026-04-18T20:00:26.617,2,228,155011,119807,79.0
2026-04-18T20:00:26.637,2,229,155011,119807,79.0
2026-04-18T20:00:26.657,2,230,155011,119807,79.0
2026-04-18T20:00:26.677,2,231,155029,119814,79.0
2026-04-18T20:00:26.697,2,232,155029,119814,79.0
2026-04-18T20:00:26.716,2,233,155029,119814,79.0
2026-04-18T20:00:26.736,2,234,155029,119814,79.0
2026-04-18T20:00:26.757,2,235,155037,119821,79.0
2026-04-18T20:00:26.777,2,236,155037,119821,79.0
2026-04-18T20:00:26.796,2,237,155037,119821,79.0
2026-04-18T20:00:26.816,2,238,155037,119821,79.0
2026-04-18T20:00:26.836,2,239,155054,119834,79.0
2026-04-18T20:00:26.856,2,240,155054,119834,79.0
2026-04-18T20:00:26.876,2,241,155054,119834,79.0
2026-04-18T20:00:26.896,2,242,155054,119834,79.0
2026-04-18T20:00:26.916,2,243,155064,119844,79.0
2026-04-18T20:00:26.937,2,244,155064,119844,79.0
2026-04-18T20:00:26.956,2,245,155064,119844,79.0
2026-04-18T20:00:26.976,2,246,155064,119844,79.0
2026-04-18T20:00:26.996,2,247,155091,119848,79.0
2026-04-18T20:00:27.016,2,248,155091,119848,79.0
2026-04-18T20:00:27.035,2,249,155091,119848,79.0
2026-04-18T20:00:27.056,2,250,155091,119848,79.0
2026-04-18T20:00:27.075,2,251,155099,119857,79.0
2026-04-18T20:00:27.096,2,252,155099,119857,79.0
2026-04-18T20:00:27.115,2,253,155099,119857,79.0
2026-04-18T20:00:27.136,2,254,155099,119857,79.0
2026-04-18T20:00:27.156,2,255,155097,119862,79.0
2026-04-18T20:00:27.176,2,256,155097,119862,79.0
2026-04-18T20:00:27.196,2,257,155097,119862,79.0
2026-04-18T20:00:27.216,2,258,155097,119862,79.0
2026-04-18T20:00:27.236,2,259,155079,119848,79.0
2026-04-18T20:00:27.256,2,260,155079,119848,79.0
2026-04-18T20:00:27.276,2,261,155079,119848,79.0
2026-04-18T20:00:27.296,2,262,155079,119848,79.0
2026-04-18T20:00:27.316,2,263,155051,119833,79.0
2026-04-18T20:00:27.336,2,264,155051,119833,79.0
2026-04-18T20:00:27.356,2,265,155051,119833,79.0
2026-04-18T20:00:27.376,2,266,155051,119833,79.0
2026-04-18T20:00:27.396,2,267,155037,119826,79.0
2026-04-18T20:00:27.416,2,268,155037,119826,79.0
2026-04-18T20:00:27.436,2,269,155037,119826,79.0
2026-04-18T20:00:27.456,2,270,155037,119826,79.0
2026-04-18T20:00:27.476,2,271,155023,119818,79.0
2026-04-18T20:00:27.496,2,272,155023,119818,79.0
2026-04-18T20:00:27.516,2,273,155023,119818,79.0
2026-04-18T20:00:27.536,2,274,155023,119818,79.0
2026-04-18T20:00:27.556,2,275,155031,119821,79.0
2026-04-18T20:00:27.575,2,276,155031,119821,79.0
2026-04-18T20:00:27.595,2,277,155031,119821,79.0
2026-04-18T20:00:27.616,2,278,155031,119821,79.0
2026-04-18T20:00:27.635,2,279,155035,119817,79.0
2026-04-18T20:00:27.656,2,280,155035,119817,79.0
2026-04-18T20:00:27.676,2,281,155035,119817,79.0
2026-04-18T20:00:27.695,2,282,155035,119817,79.0
2026-04-18T20:00:27.715,2,283,155068,119832,79.0
2026-04-18T20:00:27.735,2,284,155068,119832,79.0
2026-04-18T20:00:27.755,2,285,155068,119832,79.0
2026-04-18T20:00:27.775,2,286,155068,119832,79.0
2026-04-18T20:00:27.795,2,287,155088,119836,79.0
2026-04-18T20:00:27.815,2,288,155088,119836,79.0
2026-04-18T20:00:27.835,2,289,155088,119836,79.0
2026-04-18T20:00:27.855,2,290,155088,119836,79.0
2026-04-18T20:00:27.875,2,291,155091,119839,79.0
2026-04-18T20:00:27.895,2,292,155091,119839,79.0
2026-04-18T20:00:27.915,2,293,155091,119839,79.0
2026-04-18T20:00:27.935,2,294,155091,119839,79.0
2026-04-18T20:00:27.955,2,295,155075,119831,79.0
2026-04-18T20:00:27.975,2,296,155075,119831,79.0
2026-04-18T20:00:27.995,2,297,155075,119831,79.0
2026-04-18T20:00:28.015,2,298,155075,119831,79.0
2026-04-18T20:00:28.035,2,299,155064,119826,79.0
2026-04-18T20:00:28.055,2,300,155064,119826,79.0
2026-04-18T20:00:28.075,2,301,155064,119826,79.0
2026-04-18T20:00:28.095,2,302,155064,119826,79.0
2026-04-18T20:00:28.115,2,303,155050,119811,79.0
2026-04-18T20:00:28.135,2,304,155050,119811,79.0
2026-04-18T20:00:28.154,2,305,155050,119811,79.0
2026-04-18T20:00:28.175,2,306,155050,119811,79.0
2026-04-18T20:00:28.195,2,307,155030,119804,79.0
2026-04-18T20:00:28.215,2,308,155030,119804,79.0
2026-04-18T20:00:28.234,2,309,155030,119804,79.0
2026-04-18T20:00:28.255,2,310,155030,119804,79.0
2026-04-18T20:00:28.275,2,311,155017,119803,79.0
2026-04-18T20:00:28.295,2,312,155017,119803,79.0
2026-04-18T20:00:28.315,2,313,155017,119803,79.0
2026-04-18T20:00:28.335,2,314,155017,119803,79.0
2026-04-18T20:00:28.355,2,315,155017,119800,79.0
2026-04-18T20:00:28.374,2,316,155017,119800,79.0
2026-04-18T20:00:28.395,2,317,155017,119800,79.0
2026-04-18T20:00:28.415,2,318,155017,119800,79.0
2026-04-18T20:00:28.434,2,319,154986,119781,79.0
2026-04-18T20:00:28.455,2,320,154986,119781,79.0
2026-04-18T20:00:28.475,2,321,154986,119781,79.0
2026-04-18T20:00:28.494,2,322,154986,119781,79.0
2026-04-18T20:00:28.514,2,323,154994,119779,79.0
2026-04-18T20:00:28.535,2,324,154994,119779,79.0
2026-04-18T20:00:28.554,2,325,154994,119779,79.0
2026-04-18T20:00:28.574,2,326,154994,119779,79.0
2026-04-18T20:00:28.594,2,327,154991,119783,79.0
2026-04-18T20:00:28.614,2,328,154991,119783,79.0
2026-04-18T20:00:28.634,2,329,154991,119783,79.0
2026-04-18T20:00:28.654,2,330,154991,119783,79.0
2026-04-18T20:00:28.674,2,331,154974,119777,79.0
2026-04-18T20:00:28.694,2,332,154974,119777,79.0
2026-04-18T20:00:28.714,2,333,154974,119777,79.0
2026-04-18T20:00:28.734,2,334,154974,119777,79.0
2026-04-18T20:00:28.754,2,335,154944,119763,79.0
2026-04-18T20:00:28.774,2,336,154944,119763,79.0
2026-04-18T20:00:28.794,2,337,154944,119763,79.0
2026-04-18T20:00:28.814,2,338,154944,119763,79.0
2026-04-18T20:00:28.834,2,339,154942,119750,79.0
2026-04-18T20:00:28.854,2,340,154942,119750,79.0
2026-04-18T20:00:28.874,2,341,154942,119750,79.0
2026-04-18T20:00:28.895,2,342,154942,119750,79.0
2026-04-18T20:00:28.914,2,343,154920,119751,79.0
2026-04-18T20:00:28.934,2,344,154920,119751,79.0
2026-04-18T20:00:28.954,2,345,154920,119751,79.0
2026-04-18T20:00:28.974,2,346,154920,119751,79.0
2026-04-18T20:00:28.994,2,347,154929,119760,79.0
2026-04-18T20:00:29.014,2,348,154929,119760,79.0
2026-04-18T20:00:29.034,2,349,154929,119760,79.0
2026-04-18T20:00:29.054,2,350,154929,119760,79.0
2026-04-18T20:00:29.074,2,351,154952,119767,79.0
2026-04-18T20:00:29.094,2,352,154952,119767,79.0
2026-04-18T20:00:29.114,2,353,154952,119767,79.0
2026-04-18T20:00:29.134,2,354,154952,119767,79.0
2026-04-18T20:00:29.154,2,355,154961,119776,79.0
2026-04-18T20:00:29.174,2,356,154961,119776,79.0
2026-04-18T20:00:29.194,2,357,154961,119776,79.0
2026-04-18T20:00:29.213,2,358,154961,119776,79.0
2026-04-18T20:00:29.233,2,359,154977,119789,79.0
2026-04-18T20:00:29.253,2,360,154977,119789,79.0
2026-04-18T20:00:29.273,2,361,154977,119789,79.0
2026-04-18T20:00:29.293,2,362,154977,119789,79.0
2026-04-18T20:00:29.313,2,363,155006,119806,79.0
2026-04-18T20:00:29.333,2,364,155006,119806,79.0
2026-04-18T20:00:29.353,2,365,155006,119806,79.0
2026-04-18T20:00:29.373,2,366,155006,119806,79.0
2026-04-18T20:00:29.394,2,367,155021,119809,79.0
2026-04-18T20:00:29.413,2,368,155021,119809,79.0
2026-04-18T20:00:29.433,2,369,155021,119809,79.0
2026-04-18T20:00:29.453,2,370,155021,119809,79.0
2026-04-18T20:00:29.473,2,371,154998,119806,79.0
2026-04-18T20:00:29.494,2,372,154998,119806,79.0
2026-04-18T20:00:29.513,2,373,154998,119806,79.0
2026-04-18T20:00:29.533,2,374,154998,119806,79.0
2026-04-18T20:00:29.553,2,375,154998,119805,79.0
2026-04-18T20:00:29.573,2,376,154998,119805,79.0
2026-04-18T20:00:29.593,2,377,154998,119805,79.0
2026-04-18T20:00:29.613,2,378,154998,119805,79.0
2026-04-18T20:00:29.633,2,379,154967,119791,79.0
2026-04-18T20:00:29.653,2,380,154967,119791,79.0
2026-04-18T20:00:29.673,2,381,154967,119791,79.0
2026-04-18T20:00:29.693,2,382,154967,119791,79.0
2026-04-18T20:00:29.713,2,383,154939,119775,79.0
2026-04-18T20:00:29.733,2,384,154939,119775,79.0
2026-04-18T20:00:29.753,2,385,154939,119775,79.0
2026-04-18T20:00:29.773,2,386,154939,119775,79.0
2026-04-18T20:00:29.792,2,387,154939,119777,79.0
2026-04-18T20:00:29.812,2,388,154939,119777,79.0
2026-04-18T20:00:29.832,2,389,154939,119777,79.0
2026-04-18T20:00:29.852,2,390,154939,119777,79.0
2026-04-18T20:00:29.873,2,391,154934,119778,79.0
2026-04-18T20:00:29.893,2,392,154934,119778,79.0
2026-04-18T20:00:29.913,2,393,154934,119778,79.0
2026-04-18T20:00:29.933,2,394,154934,119778,79.0
2026-04-18T20:00:29.952,2,395,154955,119787,79.0
2026-04-18T20:00:29.973,2,396,154955,119787,79.0
2026-04-18T20:00:29.992,2,397,154955,119787,79.0
2026-04-18T20:00:30.013,2,398,154955,119787,79.0
2026-04-18T20:00:30.033,2,399,154987,119804,79.0
2026-04-18T20:00:30.052,2,400,154987,119804,79.0
2026-04-18T20:00:30.072,2,401,154987,119804,79.0
2026-04-18T20:00:30.092,2,402,154987,119804,79.0
2026-04-18T20:00:30.113,2,403,155016,119812,79.0
2026-04-18T20:00:30.132,2,404,155016,119812,79.0
2026-04-18T20:00:30.152,2,405,155016,119812,79.0
2026-04-18T20:00:30.173,2,406,155016,119812,79.0
2026-04-18T20:00:30.192,2,407,155042,119825,79.0
2026-04-18T20:00:30.212,2,408,155042,119825,79.0
2026-04-18T20:00:30.232,2,409,155042,119825,79.0
2026-04-18T20:00:30.253,2,410,155042,119825,79.0
2026-04-18T20:00:30.272,2,411,155026,119832,79.0
2026-04-18T20:00:30.292,2,412,155026,119832,79.0
2026-04-18T20:00:30.312,2,413,155026,119832,79.0
2026-04-18T20:00:30.332,2,414,155026,119832,79.0
2026-04-18T20:00:30.352,2,415,155011,119811,79.0
2026-04-18T20:00:30.372,2,416,155011,119811,79.0
2026-04-18T20:00:30.392,2,417,155011,119811,79.0
2026-04-18T20:00:30.412,2,418,155011,119811,79.0
2026-04-18T20:00:30.432,2,419,155022,119822,79.0
2026-04-18T20:00:30.452,2,420,155022,119822,79.0
2026-04-18T20:00:30.472,2,421,155022,119822,79.0
2026-04-18T20:00:30.492,2,422,155022,119822,79.0
2026-04-18T20:00:30.512,2,423,155023,119816,79.0
2026-04-18T20:00:30.531,2,424,155023,119816,79.0
2026-04-18T20:00:30.551,2,425,155023,119816,79.0
2026-04-18T20:00:30.571,2,426,155023,119816,79.0
2026-04-18T20:00:30.592,2,427,155009,119818,79.0
2026-04-18T20:00:30.612,2,428,155009,119818,79.0
2026-04-18T20:00:30.632,2,429,155009,119818,79.0
2026-04-18T20:00:30.652,2,430,155009,119818,79.0
2026-04-18T20:00:30.672,2,431,155001,119820,79.0
2026-04-18T20:00:30.692,2,432,155001,119820,79.0
2026-04-18T20:00:30.711,2,433,155001,119820,79.0
2026-04-18T20:00:30.732,2,434,155001,119820,79.0
2026-04-18T20:00:30.752,2,435,155011,119813,79.0
2026-04-18T20:00:30.772,2,436,155011,119813,79.0
2026-04-18T20:00:30.792,2,437,155011,119813,79.0
2026-04-18T20:00:30.811,2,438,155011,119813,79.0
2026-04-18T20:00:30.831,2,439,155013,119820,79.0
2026-04-18T20:00:30.851,2,440,155013,119820,79.0
2026-04-18T20:00:30.871,2,441,155013,119820,79.0
2026-04-18T20:00:30.892,2,442,155013,119820,79.0
2026-04-18T20:00:30.912,2,443,155003,119816,79.0
2026-04-18T20:00:30.932,2,444,155003,119816,79.0
2026-04-18T20:00:30.951,2,445,155003,119816,79.0
2026-04-18T20:00:30.971,2,446,155003,119816,79.0
2026-04-18T20:00:30.991,2,447,154984,119808,79.0
2026-04-18T20:00:31.011,2,448,154984,119808,79.0
2026-04-18T20:00:31.031,2,449,154984,119808,79.0
2026-04-18T20:00:31.051,2,450,154984,119808,79.0
2026-04-18T20:00:31.071,2,451,154980,119809,79.0
2026-04-18T20:00:31.091,2,452,154980,119809,79.0
2026-04-18T20:00:31.111,2,453,154980,119809,79.0
2026-04-18T20:00:31.131,2,454,154980,119809,79.0
2026-04-18T20:00:31.151,2,455,154992,119809,79.0
2026-04-18T20:00:31.171,2,456,154992,119809,79.0
2026-04-18T20:00:31.191,2,457,154992,119809,79.0
2026-04-18T20:00:31.211,2,458,154992,119809,79.0
2026-04-18T20:00:31.231,2,459,154976,119817,79.0
2026-04-18T20:00:31.251,2,460,154976,119817,79.0
2026-04-18T20:00:31.271,2,461,154976,119817,79.0
2026-04-18T20:00:31.291,2,462,154976,119817,79.0
2026-04-18T20:00:31.311,2,463,154985,119815,79.0
2026-04-18T20:00:31.331,2,464,154985,119815,79.0
2026-04-18T20:00:31.351,2,465,154985,119815,79.0
2026-04-18T20:00:31.371,2,466,154985,119815,79.0
2026-04-18T20:00:31.390,2,467,154979,119821,79.0
2026-04-18T20:00:31.410,2,468,154979,119821,79.0
2026-04-18T20:00:31.431,2,469,154979,119821,79.0
2026-04-18T20:00:31.450,2,470,154979,119821,79.0
2026-04-18T20:00:31.470,2,471,154993,119821,79.0
2026-04-18T20:00:31.490,2,472,154993,119821,79.0
2026-04-18T20:00:31.510,2,473,154993,119821,79.0
2026-04-18T20:00:31.530,2,474,154993,119821,79.0
2026-04-18T20:00:31.550,2,475,155015,119832,79.0
2026-04-18T20:00:31.570,2,476,155015,119832,79.0
2026-04-18T20:00:31.591,2,477,155015,119832,79.0
2026-04-18T20:00:31.611,2,478,155015,119832,79.0
2026-04-18T20:00:31.630,2,479,155009,119825,79.0
2026-04-18T20:00:31.650,2,480,155009,119825,79.0
2026-04-18T20:00:31.670,2,481,155009,119825,79.0
2026-04-18T20:00:31.691,2,482,155009,119825,79.0
2026-04-18T20:00:31.710,2,483,154992,119825,79.0
2026-04-18T20:00:31.730,2,484,154992,119825,79.0
2026-04-18T20:00:31.750,2,485,154992,119825,79.0
2026-04-18T20:00:31.770,2,486,154992,119825,79.0
2026-04-18T20:00:31.790,2,487,154991,119814,79.0
2026-04-18T20:00:31.810,2,488,154991,119814,79.0
2026-04-18T20:00:31.830,2,489,154991,119814,79.0
2026-04-18T20:00:31.850,2,490,154991,119814,79.0
2026-04-18T20:00:31.870,2,491,154989,119814,79.0
2026-04-18T20:00:31.890,2,492,154989,119814,79.0
2026-04-18T20:00:31.910,2,493,154989,119814,79.0
2026-04-18T20:00:31.930,2,494,154989,119814,79.0
2026-04-18T20:00:31.950,2,495,154996,119830,79.0
2026-04-18T20:00:31.970,2,496,154996,119830,79.0
2026-04-18T20:00:31.990,2,497,154996,119830,79.0
2026-04-18T20:00:32.010,2,498,154996,119830,79.0
2026-04-18T20:00:32.029,2,499,155005,119831,79.0
2026-04-18T20:00:32.049,2,500,155005,119831,79.0
2026-04-18T20:00:32.070,2,501,155005,119831,79.0
2026-04-18T20:00:36.125,3,0,155070,119801,79.0
2026-04-18T20:00:36.145,3,1,155070,119801,79.0
2026-04-18T20:00:36.165,3,2,155070,119801,79.0
2026-04-18T20:00:36.184,3,3,155056,119793,79.0
2026-04-18T20:00:36.204,3,4,155056,119793,79.0
2026-04-18T20:00:36.225,3,5,155056,119793,79.0
2026-04-18T20:00:36.245,3,6,155056,119793,79.0
2026-04-18T20:00:36.265,3,7,155033,119778,79.0
2026-04-18T20:00:36.285,3,8,155033,119778,79.0
2026-04-18T20:00:36.304,3,9,155033,119778,79.0
2026-04-18T20:00:36.325,3,10,155033,119778,79.0
2026-04-18T20:00:36.344,3,11,155035,119787,79.0
2026-04-18T20:00:36.364,3,12,155035,119787,79.0
2026-04-18T20:00:36.384,3,13,155035,119787,79.0
2026-04-18T20:00:36.404,3,14,155035,119787,79.0
2026-04-18T20:00:36.424,3,15,155057,119807,79.0
2026-04-18T20:00:36.445,3,16,155057,119807,79.0
2026-04-18T20:00:36.465,3,17,155057,119807,79.0
2026-04-18T20:00:36.485,3,18,155057,119807,79.0
2026-04-18T20:00:36.505,3,19,155062,119813,79.0
2026-04-18T20:00:36.525,3,20,155062,119813,79.0
2026-04-18T20:00:36.544,3,21,155062,119813,79.0
2026-04-18T20:00:36.564,3,22,155062,119813,79.0
2026-04-18T20:00:36.585,3,23,155091,119828,79.0
2026-04-18T20:00:36.604,3,24,155091,119828,79.0
2026-04-18T20:00:36.624,3,25,155091,119828,79.0
2026-04-18T20:00:36.644,3,26,155091,119828,79.0
2026-04-18T20:00:36.665,3,27,155103,119833,79.0
2026-04-18T20:00:36.685,3,28,155103,119833,79.0
2026-04-18T20:00:36.704,3,29,155103,119833,79.0
2026-04-18T20:00:36.724,3,30,155103,119833,79.0
2026-04-18T20:00:36.744,3,31,155119,119845,79.0
2026-04-18T20:00:36.764,3,32,155119,119845,79.0
2026-04-18T20:00:36.784,3,33,155119,119845,79.0
2026-04-18T20:00:36.804,3,34,155119,119845,79.0
2026-04-18T20:00:36.824,3,35,155140,119843,79.0
2026-04-18T20:00:36.844,3,36,155140,119843,79.0
2026-04-18T20:00:36.864,3,37,155140,119843,79.0
2026-04-18T20:00:36.884,3,38,155140,119843,79.0
2026-04-18T20:00:36.904,3,39,155149,119859,79.0
2026-04-18T20:00:36.924,3,40,155149,119859,79.0
2026-04-18T20:00:36.944,3,41,155149,119859,79.0
2026-04-18T20:00:36.964,3,42,155149,119859,79.0
2026-04-18T20:00:36.984,3,43,155146,119870,79.0
2026-04-18T20:00:37.004,3,44,155146,119870,79.0
2026-04-18T20:00:37.024,3,45,155146,119870,79.0
2026-04-18T20:00:37.044,3,46,155146,119870,79.0
2026-04-18T20:00:37.064,3,47,155161,119869,79.0
2026-04-18T20:00:37.084,3,48,155161,119869,79.0
2026-04-18T20:00:37.104,3,49,155161,119869,79.0
2026-04-18T20:00:37.124,3,50,155161,119869,79.0
2026-04-18T20:00:37.143,3,51,155160,119871,79.0
2026-04-18T20:00:37.164,3,52,155160,119871,79.0
2026-04-18T20:00:37.184,3,53,155160,119871,79.0
2026-04-18T20:00:37.203,3,54,155160,119871,79.0
2026-04-18T20:00:37.223,3,55,155165,119882,79.0
2026-04-18T20:00:37.243,3,56,155165,119882,79.0
2026-04-18T20:00:37.264,3,57,155165,119882,79.0
2026-04-18T20:00:37.284,3,58,155165,119882,79.0
2026-04-18T20:00:37.304,3,59,155186,119891,79.0
2026-04-18T20:00:37.324,3,60,155186,119891,79.0
2026-04-18T20:00:37.344,3,61,155186,119891,79.0
2026-04-18T20:00:37.364,3,62,155186,119891,79.0
2026-04-18T20:00:37.384,3,63,155188,119893,79.0
2026-04-18T20:00:37.403,3,64,155188,119893,79.0
2026-04-18T20:00:37.424,3,65,155188,119893,79.0
2026-04-18T20:00:37.444,3,66,155188,119893,79.0
2026-04-18T20:00:37.463,3,67,155197,119897,79.0
2026-04-18T20:00:37.483,3,68,155197,119897,79.0
2026-04-18T20:00:37.503,3,69,155197,119897,79.0
2026-04-18T20:00:37.523,3,70,155197,119897,79.0
2026-04-18T20:00:37.543,3,71,155218,119906,79.0
2026-04-18T20:00:37.563,3,72,155218,119906,79.0
2026-04-18T20:00:37.583,3,73,155218,119906,79.0
2026-04-18T20:00:37.603,3,74,155218,119906,79.0
2026-04-18T20:00:37.623,3,75,155243,119922,79.0
2026-04-18T20:00:37.643,3,76,155243,119922,79.0
2026-04-18T20:00:37.663,3,77,155243,119922,79.0
2026-04-18T20:00:37.683,3,78,155243,119922,79.0
2026-04-18T20:00:37.703,3,79,155228,119922,79.0
2026-04-18T20:00:37.723,3,80,155228,119922,79.0
2026-04-18T20:00:37.743,3,81,155228,119922,79.0
2026-04-18T20:00:37.763,3,82,155228,119922,79.0
2026-04-18T20:00:37.783,3,83,155222,119915,79.0
2026-04-18T20:00:37.803,3,84,155222,119915,79.0
2026-04-18T20:00:37.823,3,85,155222,119915,79.0
2026-04-18T20:00:37.843,3,86,155222,119915,79.0
2026-04-18T20:00:37.863,3,87,155223,119909,79.0
2026-04-18T20:00:37.883,3,88,155223,119909,79.0
2026-04-18T20:00:37.903,3,89,155223,119909,79.0
2026-04-18T20:00:37.923,3,90,155223,119909,79.0
2026-04-18T20:00:37.943,3,91,155213,119910,79.0
2026-04-18T20:00:37.963,3,92,155213,119910,79.0
2026-04-18T20:00:37.983,3,93,155213,119910,79.0
2026-04-18T20:00:38.002,3,94,155213,119910,79.0
2026-04-18T20:00:38.022,3,95,155200,119914,79.0
2026-04-18T20:00:38.042,3,96,155200,119914,79.0
2026-04-18T20:00:38.062,3,97,155200,119914,79.0
2026-04-18T20:00:38.083,3,98,155200,119914,79.0
2026-04-18T20:00:38.102,3,99,155197,119901,79.0
2026-04-18T20:00:38.122,3,100,155197,119901,79.0
2026-04-18T20:00:38.143,3,101,155197,119901,79.0
2026-04-18T20:00:38.162,3,102,155197,119901,79.0
2026-04-18T20:00:38.182,3,103,155186,119906,79.0
2026-04-18T20:00:38.202,3,104,155186,119906,79.0
2026-04-18T20:00:38.222,3,105,155186,119906,79.0
2026-04-18T20:00:38.243,3,106,155186,119906,79.0
2026-04-18T20:00:38.262,3,107,155212,119894,79.0
2026-04-18T20:00:38.282,3,108,155212,119894,79.0
2026-04-18T20:00:38.302,3,109,155212,119894,79.0
2026-04-18T20:00:38.323,3,110,155212,119894,79.0
2026-04-18T20:00:38.342,3,111,155224,119910,79.0
2026-04-18T20:00:38.362,3,112,155224,119910,79.0
2026-04-18T20:00:38.382,3,113,155224,119910,79.0
2026-04-18T20:00:38.402,3,114,155224,119910,79.0
2026-04-18T20:00:38.423,3,115,155223,119911,79.0
2026-04-18T20:00:38.442,3,116,155223,119911,79.0
2026-04-18T20:00:38.462,3,117,155223,119911,79.0
2026-04-18T20:00:38.482,3,118,155223,119911,79.0
2026-04-18T20:00:38.502,3,119,155200,119906,79.0
2026-04-18T20:00:38.522,3,120,155200,119906,79.0
2026-04-18T20:00:38.542,3,121,155200,119906,79.0
2026-04-18T20:00:38.562,3,122,155200,119906,79.0
2026-04-18T20:00:38.582,3,123,155193,119896,79.0
2026-04-18T20:00:38.602,3,124,155193,119896,79.0
2026-04-18T20:00:38.622,3,125,155193,119896,79.0
2026-04-18T20:00:38.642,3,126,155193,119896,79.0
2026-04-18T20:00:38.663,3,127,155195,119893,79.0
2026-04-18T20:00:38.682,3,128,155195,119893,79.0
2026-04-18T20:00:38.702,3,129,155195,119893,79.0
2026-04-18T20:00:38.722,3,130,155195,119893,79.0
2026-04-18T20:00:38.741,3,131,155172,119889,79.0
2026-04-18T20:00:38.762,3,132,155172,119889,79.0
2026-04-18T20:00:38.782,3,133,155172,119889,79.0
2026-04-18T20:00:38.802,3,134,155172,119889,79.0
2026-04-18T20:00:38.822,3,135,155177,119888,79.0
2026-04-18T20:00:38.841,3,136,155177,119888,79.0
2026-04-18T20:00:38.862,3,137,155177,119888,79.0
2026-04-18T20:00:38.881,3,138,155177,119888,79.0
2026-04-18T20:00:38.902,3,139,155183,119884,79.0
2026-04-18T20:00:38.922,3,140,155183,119884,79.0
2026-04-18T20:00:38.942,3,141,155183,119884,79.0
2026-04-18T20:00:38.961,3,142,155183,119884,79.0
2026-04-18T20:00:38.982,3,143,155176,119881,79.0
2026-04-18T20:00:39.001,3,144,155176,119881,79.0
2026-04-18T20:00:39.021,3,145,155176,119881,79.0
2026-04-18T20:00:39.041,3,146,155176,119881,79.0
2026-04-18T20:00:39.061,3,147,155192,119884,79.0
2026-04-18T20:00:39.081,3,148,155192,119884,79.0
2026-04-18T20:00:39.101,3,149,155192,119884,79.0
2026-04-18T20:00:39.121,3,150,155192,119884,79.0
2026-04-18T20:00:39.141,3,151,155193,119892,79.0
2026-04-18T20:00:39.161,3,152,155193,119892,79.0
2026-04-18T20:00:39.181,3,153,155193,119892,79.0
2026-04-18T20:00:39.201,3,154,155193,119892,79.0
2026-04-18T20:00:39.221,3,155,155186,119885,79.0
2026-04-18T20:00:39.241,3,156,155186,119885,79.0
2026-04-18T20:00:39.261,3,157,155186,119885,79.0
2026-04-18T20:00:39.281,3,158,155186,119885,79.0
2026-04-18T20:00:39.302,3,159,155185,119884,79.0
2026-04-18T20:00:39.320,3,160,155185,119884,79.0
2026-04-18T20:00:39.341,3,161,155185,119884,79.0
2026-04-18T20:00:39.361,3,162,155185,119884,79.0
2026-04-18T20:00:39.381,3,163,155183,119881,79.0
2026-04-18T20:00:39.401,3,164,155183,119881,79.0
2026-04-18T20:00:39.421,3,165,155183,119881,79.0
2026-04-18T20:00:39.441,3,166,155183,119881,79.0
2026-04-18T20:00:39.461,3,167,155203,119887,79.0
2026-04-18T20:00:39.481,3,168,155203,119887,79.0
2026-04-18T20:00:39.501,3,169,155203,119887,79.0
2026-04-18T20:00:39.521,3,170,155203,119887,79.0
2026-04-18T20:00:39.541,3,171,155213,119899,79.0
2026-04-18T20:00:39.561,3,172,155213,119899,79.0
2026-04-18T20:00:39.581,3,173,155213,119899,79.0
2026-04-18T20:00:39.601,3,174,155213,119899,79.0
2026-04-18T20:00:39.621,3,175,155227,119908,79.0
2026-04-18T20:00:39.640,3,176,155227,119908,79.0
2026-04-18T20:00:39.661,3,177,155227,119908,79.0
2026-04-18T20:00:39.681,3,178,155227,119908,79.0
2026-04-18T20:00:39.701,3,179,155248,119918,79.0
2026-04-18T20:00:39.721,3,180,155248,119918,79.0
2026-04-18T20:00:39.741,3,181,155248,119918,79.0
2026-04-18T20:00:39.760,3,182,155248,119918,79.0
2026-04-18T20:00:39.781,3,183,155261,119922,79.0
2026-04-18T20:00:39.800,3,184,155261,119922,79.0
2026-04-18T20:00:39.821,3,185,155261,119922,79.0
2026-04-18T20:00:39.840,3,186,155261,119922,79.0
2026-04-18T20:00:39.861,3,187,155282,119936,79.0
2026-04-18T20:00:39.880,3,188,155282,119936,79.0
2026-04-18T20:00:39.901,3,189,155282,119936,79.0
2026-04-18T20:00:39.920,3,190,155282,119936,79.0
2026-04-18T20:00:39.940,3,191,155276,119944,79.0
2026-04-18T20:00:39.960,3,192,155276,119944,79.0
2026-04-18T20:00:39.980,3,193,155276,119944,79.0
2026-04-18T20:00:40.000,3,194,155276,119944,79.0
2026-04-18T20:00:40.020,3,195,155281,119945,79.0
2026-04-18T20:00:40.040,3,196,155281,119945,79.0
2026-04-18T20:00:40.060,3,197,155281,119945,79.0
2026-04-18T20:00:40.080,3,198,155281,119945,79.0
2026-04-18T20:00:40.100,3,199,155285,119942,79.0
2026-04-18T20:00:40.119,3,200,155285,119942,79.0
2026-04-18T20:00:40.140,3,201,155285,119942,79.0
2026-04-18T20:00:40.160,3,202,155285,119942,79.0
2026-04-18T20:00:40.180,3,203,155275,119944,79.0
2026-04-18T20:00:40.200,3,204,155275,119944,79.0
2026-04-18T20:00:40.220,3,205,155275,119944,79.0
2026-04-18T20:00:40.240,3,206,155275,119944,79.0
2026-04-18T20:00:40.260,3,207,155272,119936,79.0
2026-04-18T20:00:40.280,3,208,155272,119936,79.0
2026-04-18T20:00:40.300,3,209,155272,119936,79.0
2026-04-18T20:00:40.319,3,210,155272,119936,79.0
2026-04-18T20:00:40.339,3,211,155276,119938,79.0
2026-04-18T20:00:40.359,3,212,155276,119938,79.0
2026-04-18T20:00:40.379,3,213,155276,119938,79.0
2026-04-18T20:00:40.399,3,214,155276,119938,79.0
2026-04-18T20:00:40.419,3,215,155284,119944,79.0
2026-04-18T20:00:40.440,3,216,155284,119944,79.0
2026-04-18T20:00:40.460,3,217,155284,119944,79.0
2026-04-18T20:00:40.480,3,218,155284,119944,79.0
2026-04-18T20:00:40.500,3,219,155283,119939,79.0
2026-04-18T20:00:40.519,3,220,155283,119939,79.0
2026-04-18T20:00:40.539,3,221,155283,119939,79.0
2026-04-18T20:00:40.560,3,222,155283,119939,79.0
2026-04-18T20:00:40.580,3,223,155297,119939,79.0
2026-04-18T20:00:40.600,3,224,155297,119939,79.0
2026-04-18T20:00:40.620,3,225,155297,119939,79.0
2026-04-18T20:00:40.640,3,226,155297,119939,79.0
2026-04-18T20:00:40.659,3,227,155306,119938,79.0
2026-04-18T20:00:40.679,3,228,155306,119938,79.0
2026-04-18T20:00:40.700,3,229,155306,119938,79.0
2026-04-18T20:00:40.719,3,230,155306,119938,79.0
2026-04-18T20:00:40.739,3,231,155306,119942,79.0
2026-04-18T20:00:40.759,3,232,155306,119942,79.0
2026-04-18T20:00:40.779,3,233,155306,119942,79.0
2026-04-18T20:00:40.799,3,234,155306,119942,79.0
2026-04-18T20:00:40.819,3,235,155304,119946,79.0
2026-04-18T20:00:40.839,3,236,155304,119946,79.0
2026-04-18T20:00:40.859,3,237,155304,119946,79.0
2026-04-18T20:00:40.879,3,238,155304,119946,79.0
2026-04-18T20:00:40.899,3,239,155270,119925,79.0
2026-04-18T20:00:40.920,3,240,155270,119925,79.0
2026-04-18T20:00:40.940,3,241,155270,119925,79.0
2026-04-18T20:00:40.959,3,242,155270,119925,79.0
2026-04-18T20:00:40.979,3,243,155269,119919,79.0
2026-04-18T20:00:40.999,3,244,155269,119919,79.0
2026-04-18T20:00:41.019,3,245,155269,119919,79.0
2026-04-18T20:00:41.039,3,246,155269,119919,79.0
2026-04-18T20:00:41.059,3,247,155263,119921,79.0
2026-04-18T20:00:41.079,3,248,155263,119921,79.0
2026-04-18T20:00:41.099,3,249,155263,119921,79.0
2026-04-18T20:00:41.119,3,250,155263,119921,79.0
2026-04-18T20:00:41.139,3,251,155255,119915,79.0
2026-04-18T20:00:41.159,3,252,155255,119915,79.0
2026-04-18T20:00:41.179,3,253,155255,119915,79.0
2026-04-18T20:00:41.199,3,254,155255,119915,79.0
2026-04-18T20:00:41.219,3,255,155250,119909,79.0
2026-04-18T20:00:41.239,3,256,155250,119909,79.0
2026-04-18T20:00:41.259,3,257,155250,119909,79.0
2026-04-18T20:00:41.279,3,258,155250,119909,79.0
2026-04-18T20:00:41.299,3,259,155243,119899,79.0
2026-04-18T20:00:41.318,3,260,155243,119899,79.0
2026-04-18T20:00:41.338,3,261,155243,119899,79.0
2026-04-18T20:00:41.359,3,262,155243,119899,79.0
2026-04-18T20:00:41.379,3,263,155244,119898,79.0
2026-04-18T20:00:41.398,3,264,155244,119898,79.0
2026-04-18T20:00:41.418,3,265,155244,119898,79.0
2026-04-18T20:00:41.439,3,266,155244,119898,79.0
2026-04-18T20:00:41.459,3,267,155257,119898,79.0
2026-04-18T20:00:41.478,3,268,155257,119898,79.0
2026-04-18T20:00:41.498,3,269,155257,119898,79.0
2026-04-18T20:00:41.518,3,270,155257,119898,79.0
2026-04-18T20:00:41.538,3,271,155255,119896,79.0
2026-04-18T20:00:41.559,3,272,155255,119896,79.0
2026-04-18T20:00:41.578,3,273,155255,119896,79.0
2026-04-18T20:00:41.598,3,274,155255,119896,79.0
2026-04-18T20:00:41.619,3,275,155219,119896,79.0
2026-04-18T20:00:41.638,3,276,155219,119896,79.0
2026-04-18T20:00:41.659,3,277,155219,119896,79.0
2026-04-18T20:00:41.678,3,278,155219,119896,79.0
2026-04-18T20:00:41.698,3,279,155219,119877,79.0
2026-04-18T20:00:41.718,3,280,155219,119877,79.0
2026-04-18T20:00:41.738,3,281,155219,119877,79.0
2026-04-18T20:00:41.758,3,282,155219,119877,79.0
2026-04-18T20:00:41.778,3,283,155217,119874,79.0
2026-04-18T20:00:41.798,3,284,155217,119874,79.0
2026-04-18T20:00:41.818,3,285,155217,119874,79.0
2026-04-18T20:00:41.838,3,286,155217,119874,79.0
2026-04-18T20:00:41.858,3,287,155213,119875,79.0
2026-04-18T20:00:41.878,3,288,155213,119875,79.0
2026-04-18T20:00:41.898,3,289,155213,119875,79.0
2026-04-18T20:00:41.918,3,290,155213,119875,79.0
2026-04-18T20:00:41.938,3,291,155220,119876,79.0
2026-04-18T20:00:41.958,3,292,155220,119876,79.0
2026-04-18T20:00:41.978,3,293,155220,119876,79.0
2026-04-18T20:00:41.998,3,294,155220,119876,79.0
2026-04-18T20:00:42.018,3,295,155236,119877,79.0
2026-04-18T20:00:42.038,3,296,155236,119877,79.0
2026-04-18T20:00:42.058,3,297,155236,119877,79.0
2026-04-18T20:00:42.077,3,298,155236,119877,79.0
2026-04-18T20:00:42.097,3,299,155252,119896,79.0
2026-04-18T20:00:42.118,3,300,155252,119896,79.0
2026-04-18T20:00:42.137,3,301,155252,119896,79.0
2026-04-18T20:00:42.157,3,302,155252,119896,79.0
2026-04-18T20:00:42.177,3,303,155267,119897,79.0
2026-04-18T20:00:42.197,3,304,155267,119897,79.0
2026-04-18T20:00:42.218,3,305,155267,119897,79.0
2026-04-18T20:00:42.237,3,306,155267,119897,79.0
2026-04-18T20:00:42.257,3,307,155273,119902,79.0
2026-04-18T20:00:42.277,3,308,155273,119902,79.0
2026-04-18T20:00:42.297,3,309,155273,119902,79.0
2026-04-18T20:00:42.318,3,310,155273,119902,79.0
2026-04-18T20:00:42.337,3,311,155278,119914,79.0
2026-04-18T20:00:42.358,3,312,155278,119914,79.0
2026-04-18T20:00:42.377,3,313,155278,119914,79.0
2026-04-18T20:00:42.397,3,314,155278,119914,79.0
2026-04-18T20:00:42.417,3,315,155282,119914,79.0
2026-04-18T20:00:42.437,3,316,155282,119914,79.0
2026-04-18T20:00:42.457,3,317,155282,119914,79.0
2026-04-18T20:00:42.477,3,318,155282,119914,79.0
2026-04-18T20:00:42.497,3,319,155272,119912,79.0
2026-04-18T20:00:42.517,3,320,155272,119912,79.0
2026-04-18T20:00:42.537,3,321,155272,119912,79.0
2026-04-18T20:00:42.557,3,322,155272,119912,79.0
2026-04-18T20:00:42.576,3,323,155277,119916,79.0
2026-04-18T20:00:42.596,3,324,155277,119916,79.0
2026-04-18T20:00:42.616,3,325,155277,119916,79.0
2026-04-18T20:00:42.637,3,326,155277,119916,79.0
2026-04-18T20:00:42.657,3,327,155266,119911,79.0
2026-04-18T20:00:42.676,3,328,155266,119911,79.0
2026-04-18T20:00:42.697,3,329,155266,119911,79.0
2026-04-18T20:00:42.717,3,330,155266,119911,79.0
2026-04-18T20:00:42.736,3,331,155269,119908,79.0
2026-04-18T20:00:42.756,3,332,155269,119908,79.0
2026-04-18T20:00:42.776,3,333,155269,119908,79.0
2026-04-18T20:00:42.797,3,334,155269,119908,79.0
2026-04-18T20:00:42.816,3,335,155276,119911,79.0
2026-04-18T20:00:42.836,3,336,155276,119911,79.0
2026-04-18T20:00:42.857,3,337,155276,119911,79.0
2026-04-18T20:00:42.876,3,338,155276,119911,79.0
2026-04-18T20:00:42.896,3,339,155268,119898,79.0
2026-04-18T20:00:42.916,3,340,155268,119898,79.0
2026-04-18T20:00:42.936,3,341,155268,119898,79.0
2026-04-18T20:00:42.956,3,342,155268,119898,79.0
2026-04-18T20:00:42.976,3,343,155281,119903,79.0
2026-04-18T20:00:42.996,3,344,155281,119903,79.0
2026-04-18T20:00:43.016,3,345,155281,119903,79.0
2026-04-18T20:00:43.036,3,346,155281,119903,79.0
2026-04-18T20:00:43.056,3,347,155299,119901,79.0
2026-04-18T20:00:43.076,3,348,155299,119901,79.0
2026-04-18T20:00:43.096,3,349,155299,119901,79.0
2026-04-18T20:00:43.116,3,350,155299,119901,79.0
2026-04-18T20:00:43.136,3,351,155278,119888,79.0
2026-04-18T20:00:43.156,3,352,155278,119888,79.0
2026-04-18T20:00:43.176,3,353,155278,119888,79.0
2026-04-18T20:00:43.196,3,354,155278,119888,79.0
2026-04-18T20:00:43.216,3,355,155272,119881,79.0
2026-04-18T20:00:43.236,3,356,155272,119881,79.0
2026-04-18T20:00:43.256,3,357,155272,119881,79.0
2026-04-18T20:00:43.276,3,358,155272,119881,79.0
2026-04-18T20:00:43.296,3,359,155271,119876,79.0
2026-04-18T20:00:43.316,3,360,155271,119876,79.0
2026-04-18T20:00:43.336,3,361,155271,119876,79.0
2026-04-18T20:00:43.356,3,362,155271,119876,79.0
2026-04-18T20:00:43.376,3,363,155258,119871,79.0
2026-04-18T20:00:43.396,3,364,155258,119871,79.0
2026-04-18T20:00:43.416,3,365,155258,119871,79.0
2026-04-18T20:00:43.436,3,366,155258,119871,79.0
2026-04-18T20:00:43.456,3,367,155262,119867,79.0
2026-04-18T20:00:43.476,3,368,155262,119867,79.0
2026-04-18T20:00:43.495,3,369,155262,119867,79.0
2026-04-18T20:00:43.516,3,370,155262,119867,79.0
2026-04-18T20:00:43.536,3,371,155268,119863,79.0
2026-04-18T20:00:43.556,3,372,155268,119863,79.0
2026-04-18T20:00:43.575,3,373,155268,119863,79.0
2026-04-18T20:00:43.595,3,374,155268,119863,79.0
2026-04-18T20:00:43.615,3,375,155269,119863,79.0
2026-04-18T20:00:43.635,3,376,155269,119863,79.0
2026-04-18T20:00:43.655,3,377,155269,119863,79.0
2026-04-18T20:00:43.675,3,378,155269,119863,79.0
2026-04-18T20:00:43.695,3,379,155267,119854,79.0
2026-04-18T20:00:43.715,3,380,155267,119854,79.0
2026-04-18T20:00:43.735,3,381,155267,119854,79.0
2026-04-18T20:00:43.755,3,382,155267,119854,79.0
2026-04-18T20:00:43.775,3,383,155271,119851,79.0
2026-04-18T20:00:43.795,3,384,155271,119851,79.0
2026-04-18T20:00:43.815,3,385,155271,119851,79.0
2026-04-18T20:00:43.835,3,386,155271,119851,79.0
2026-04-18T20:00:43.855,3,387,155276,119855,79.0
2026-04-18T20:00:43.875,3,388,155276,119855,79.0
2026-04-18T20:00:43.895,3,389,155276,119855,79.0
2026-04-18T20:00:43.915,3,390,155276,119855,79.0
2026-04-18T20:00:43.935,3,391,155268,119852,79.0
2026-04-18T20:00:43.955,3,392,155268,119852,79.0
2026-04-18T20:00:43.975,3,393,155268,119852,79.0
2026-04-18T20:00:43.995,3,394,155268,119852,79.0
2026-04-18T20:00:44.015,3,395,155268,119846,79.0
2026-04-18T20:00:44.035,3,396,155268,119846,79.0
2026-04-18T20:00:44.055,3,397,155268,119846,79.0
2026-04-18T20:00:44.075,3,398,155268,119846,79.0
2026-04-18T20:00:44.095,3,399,155246,119839,79.0
2026-04-18T20:00:44.115,3,400,155246,119839,79.0
2026-04-18T20:00:44.135,3,401,155246,119839,79.0
2026-04-18T20:00:44.155,3,402,155246,119839,79.0
2026-04-18T20:00:44.175,3,403,155253,119837,79.0
2026-04-18T20:00:44.195,3,404,155253,119837,79.0
2026-04-18T20:00:44.215,3,405,155253,119837,79.0
2026-04-18T20:00:44.234,3,406,155253,119837,79.0
2026-04-18T20:00:44.254,3,407,155249,119839,79.0
2026-04-18T20:00:44.275,3,408,155249,119839,79.0
2026-04-18T20:00:44.295,3,409,155249,119839,79.0
2026-04-18T20:00:44.315,3,410,155249,119839,79.0
2026-04-18T20:00:44.334,3,411,155253,119835,79.0
2026-04-18T20:00:44.355,3,412,155253,119835,79.0
2026-04-18T20:00:44.374,3,413,155253,119835,79.0
2026-04-18T20:00:44.394,3,414,155253,119835,79.0
2026-04-18T20:00:44.414,3,415,155248,119828,79.0
2026-04-18T20:00:44.435,3,416,155248,119828,79.0
2026-04-18T20:00:44.454,3,417,155248,119828,79.0
2026-04-18T20:00:44.474,3,418,155248,119828,79.0
2026-04-18T20:00:44.494,3,419,155249,119826,79.0
2026-04-18T20:00:44.514,3,420,155249,119826,79.0
2026-04-18T20:00:44.534,3,421,155249,119826,79.0
2026-04-18T20:00:44.554,3,422,155249,119826,79.0
2026-04-18T20:00:44.574,3,423,155278,119843,79.0
2026-04-18T20:00:44.594,3,424,155278,119843,79.0
2026-04-18T20:00:44.614,3,425,155278,119843,79.0
2026-04-18T20:00:44.634,3,426,155278,119843,79.0
2026-04-18T20:00:44.654,3,427,155278,119837,79.0
2026-04-18T20:00:44.674,3,428,155278,119837,79.0
2026-04-18T20:00:44.694,3,429,155278,119837,79.0
2026-04-18T20:00:44.714,3,430,155278,119837,79.0
2026-04-18T20:00:44.734,3,431,155276,119835,79.0
2026-04-18T20:00:44.754,3,432,155276,119835,79.0
2026-04-18T20:00:44.774,3,433,155276,119835,79.0
2026-04-18T20:00:44.794,3,434,155276,119835,79.0
2026-04-18T20:00:44.814,3,435,155269,119842,79.0
2026-04-18T20:00:44.834,3,436,155269,119842,79.0
2026-04-18T20:00:44.854,3,437,155269,119842,79.0
2026-04-18T20:00:44.874,3,438,155269,119842,79.0
2026-04-18T20:00:44.894,3,439,155274,119840,79.0
2026-04-18T20:00:44.914,3,440,155274,119840,79.0
2026-04-18T20:00:44.934,3,441,155274,119840,79.0
2026-04-18T20:00:44.954,3,442,155274,119840,79.0
2026-04-18T20:00:44.974,3,443,155275,119838,79.0
2026-04-18T20:00:44.994,3,444,155275,119838,79.0
2026-04-18T20:00:45.014,3,445,155275,119838,79.0
2026-04-18T20:00:45.034,3,446,155275,119838,79.0
2026-04-18T20:00:45.054,3,447,155278,119837,79.0
2026-04-18T20:00:45.074,3,448,155278,119837,79.0
2026-04-18T20:00:45.094,3,449,155278,119837,79.0
2026-04-18T20:00:45.114,3,450,155278,119837,79.0
2026-04-18T20:00:45.134,3,451,155301,119835,79.0
2026-04-18T20:00:45.154,3,452,155301,119835,79.0
2026-04-18T20:00:45.173,3,453,155301,119835,79.0
2026-04-18T20:00:45.193,3,454,155301,119835,79.0
2026-04-18T20:00:45.213,3,455,155312,119833,79.0
2026-04-18T20:00:45.234,3,456,155312,119833,79.0
2026-04-18T20:00:45.253,3,457,155312,119833,79.0
2026-04-18T20:00:45.273,3,458,155312,119833,79.0
2026-04-18T20:00:45.293,3,459,155311,119841,79.0
2026-04-18T20:00:45.313,3,460,155311,119841,79.0
2026-04-18T20:00:45.333,3,461,155311,119841,79.0
2026-04-18T20:00:45.353,3,462,155311,119841,79.0
2026-04-18T20:00:45.373,3,463,155320,119836,79.0
2026-04-18T20:00:45.393,3,464,155320,119836,79.0
2026-04-18T20:00:45.413,3,465,155320,119836,79.0
2026-04-18T20:00:45.433,3,466,155320,119836,79.0
2026-04-18T20:00:45.453,3,467,155326,119831,79.0
2026-04-18T20:00:45.473,3,468,155326,119831,79.0
2026-04-18T20:00:45.493,3,469,155326,119831,79.0
2026-04-18T20:00:45.513,3,470,155326,119831,79.0
2026-04-18T20:00:45.533,3,471,155303,119834,79.0
2026-04-18T20:00:45.553,3,472,155303,119834,79.0
2026-04-18T20:00:45.573,3,473,155303,119834,79.0
2026-04-18T20:00:45.593,3,474,155303,119834,79.0
2026-04-18T20:00:45.613,3,475,155296,119825,79.0
2026-04-18T20:00:45.633,3,476,155296,119825,79.0
2026-04-18T20:00:45.653,3,477,155296,119825,79.0
2026-04-18T20:00:45.673,3,478,155296,119825,79.0
2026-04-18T20:00:45.693,3,479,155296,119814,79.0
2026-04-18T20:00:45.713,3,480,155296,119814,79.0
2026-04-18T20:00:45.733,3,481,155296,119814,79.0
2026-04-18T20:00:45.753,3,482,155296,119814,79.0
2026-04-18T20:00:45.773,3,483,155292,119814,79.0
2026-04-18T20:00:45.793,3,484,155292,119814,79.0
2026-04-18T20:00:45.813,3,485,155292,119814,79.0
2026-04-18T20:00:45.833,3,486,155292,119814,79.0
2026-04-18T20:00:45.853,3,487,155288,119817,79.0
2026-04-18T20:00:45.873,3,488,155288,119817,79.0
2026-04-18T20:00:45.893,3,489,155288,119817,79.0
2026-04-18T20:00:45.913,3,490,155288,119817,79.0
2026-04-18T20:00:45.933,3,491,155282,119807,79.0
2026-04-18T20:00:45.953,3,492,155282,119807,79.0
2026-04-18T20:00:45.973,3,493,155282,119807,79.0
2026-04-18T20:00:45.992,3,494,155282,119807,79.0
2026-04-18T20:00:46.012,3,495,155285,119810,79.0
2026-04-18T20:00:46.033,3,496,155285,119810,79.0
2026-04-18T20:00:46.052,3,497,155285,119810,79.0
2026-04-18T20:00:46.072,3,498,155285,119810,79.0
2026-04-18T20:00:46.092,3,499,155288,119801,79.0
2026-04-18T20:00:46.112,3,500,155288,119801,79.0
2026-04-18T20:00:46.132,3,501,155288,119801,79.0
2026-04-18T20:00:54.702,4,0,155252,119582,78.0
2026-04-18T20:00:54.722,4,1,155235,119576,78.0
2026-04-18T20:00:54.742,4,2,155235,119576,78.0
2026-04-18T20:00:54.762,4,3,155235,119576,78.0
2026-04-18T20:00:54.782,4,4,155235,119576,78.0
2026-04-18T20:00:54.802,4,5,155228,119566,78.0
2026-04-18T20:00:54.822,4,6,155228,119566,78.0
2026-04-18T20:00:54.842,4,7,155228,119566,78.0
2026-04-18T20:00:54.862,4,8,155228,119566,78.0
2026-04-18T20:00:54.882,4,9,155205,119556,78.0
2026-04-18T20:00:54.902,4,10,155205,119556,78.0
2026-04-18T20:00:54.922,4,11,155205,119556,78.0
2026-04-18T20:00:54.942,4,12,155205,119556,78.0
2026-04-18T20:00:54.962,4,13,155205,119545,78.0
2026-04-18T20:00:54.982,4,14,155205,119545,78.0
2026-04-18T20:00:55.001,4,15,155205,119545,78.0
2026-04-18T20:00:55.022,4,16,155205,119545,78.0
2026-04-18T20:00:55.042,4,17,155230,119551,78.0
2026-04-18T20:00:55.062,4,18,155230,119551,78.0
2026-04-18T20:00:55.082,4,19,155230,119551,78.0
2026-04-18T20:00:55.102,4,20,155230,119551,78.0
2026-04-18T20:00:55.122,4,21,155235,119564,78.0
2026-04-18T20:00:55.142,4,22,155235,119564,78.0
2026-04-18T20:00:55.162,4,23,155235,119564,78.0
2026-04-18T20:00:55.182,4,24,155235,119564,78.0
2026-04-18T20:00:55.202,4,25,155267,119580,78.0
2026-04-18T20:00:55.222,4,26,155267,119580,78.0
2026-04-18T20:00:55.242,4,27,155267,119580,78.0
2026-04-18T20:00:55.262,4,28,155267,119580,78.0
2026-04-18T20:00:55.282,4,29,155301,119593,78.0
2026-04-18T20:00:55.302,4,30,155301,119593,78.0
2026-04-18T20:00:55.322,4,31,155301,119593,78.0
2026-04-18T20:00:55.342,4,32,155301,119593,78.0
2026-04-18T20:00:55.361,4,33,155340,119623,78.0
2026-04-18T20:00:55.381,4,34,155340,119623,78.0
2026-04-18T20:00:55.401,4,35,155340,119623,78.0
2026-04-18T20:00:55.422,4,36,155340,119623,78.0
2026-04-18T20:00:55.441,4,37,155373,119630,78.0
2026-04-18T20:00:55.461,4,38,155373,119630,78.0
2026-04-18T20:00:55.481,4,39,155373,119630,78.0
2026-04-18T20:00:55.501,4,40,155373,119630,78.0
2026-04-18T20:00:55.521,4,41,155377,119624,78.0
2026-04-18T20:00:55.541,4,42,155377,119624,78.0
2026-04-18T20:00:55.561,4,43,155377,119624,78.0
2026-04-18T20:00:55.582,4,44,155377,119624,78.0
2026-04-18T20:00:55.601,4,45,155380,119620,78.0
2026-04-18T20:00:55.622,4,46,155380,119620,78.0
2026-04-18T20:00:55.641,4,47,155380,119620,78.0
2026-04-18T20:00:55.661,4,48,155380,119620,78.0
2026-04-18T20:00:55.681,4,49,155363,119604,78.0
2026-04-18T20:00:55.701,4,50,155363,119604,78.0
2026-04-18T20:00:55.721,4,51,155363,119604,78.0
2026-04-18T20:00:55.740,4,52,155363,119604,78.0
2026-04-18T20:00:55.761,4,53,155363,119606,78.0
2026-04-18T20:00:55.781,4,54,155363,119606,78.0
2026-04-18T20:00:55.801,4,55,155363,119606,78.0
2026-04-18T20:00:55.821,4,56,155363,119606,78.0
2026-04-18T20:00:55.841,4,57,155349,119610,78.0
2026-04-18T20:00:55.860,4,58,155349,119610,78.0
2026-04-18T20:00:55.880,4,59,155349,119610,78.0
2026-04-18T20:00:55.901,4,60,155349,119610,78.0
2026-04-18T20:00:55.921,4,61,155355,119609,78.0
2026-04-18T20:00:55.941,4,62,155355,119609,78.0
2026-04-18T20:00:55.961,4,63,155355,119609,78.0
2026-04-18T20:00:55.981,4,64,155355,119609,78.0
2026-04-18T20:00:56.001,4,65,155358,119607,78.0
2026-04-18T20:00:56.021,4,66,155358,119607,78.0
2026-04-18T20:00:56.040,4,67,155358,119607,78.0
2026-04-18T20:00:56.061,4,68,155358,119607,78.0
2026-04-18T20:00:56.081,4,69,155369,119615,78.0
2026-04-18T20:00:56.101,4,70,155369,119615,78.0
2026-04-18T20:00:56.121,4,71,155369,119615,78.0
2026-04-18T20:00:56.141,4,72,155369,119615,78.0
2026-04-18T20:00:56.161,4,73,155379,119613,78.0
2026-04-18T20:00:56.181,4,74,155379,119613,78.0
2026-04-18T20:00:56.201,4,75,155379,119613,78.0
2026-04-18T20:00:56.221,4,76,155379,119613,78.0
2026-04-18T20:00:56.241,4,77,155358,119619,78.0
2026-04-18T20:00:56.260,4,78,155358,119619,78.0
2026-04-18T20:00:56.280,4,79,155358,119619,78.0
2026-04-18T20:00:56.301,4,80,155358,119619,78.0
2026-04-18T20:00:56.321,4,81,155353,119597,78.0
2026-04-18T20:00:56.341,4,82,155353,119597,78.0
2026-04-18T20:00:56.360,4,83,155353,119597,78.0
2026-04-18T20:00:56.380,4,84,155353,119597,78.0
2026-04-18T20:00:56.401,4,85,155331,119595,78.0
2026-04-18T20:00:56.420,4,86,155331,119595,78.0
2026-04-18T20:00:56.441,4,87,155331,119595,78.0
2026-04-18T20:00:56.460,4,88,155331,119595,78.0
2026-04-18T20:00:56.480,4,89,155313,119590,78.0
2026-04-18T20:00:56.501,4,90,155313,119590,78.0
2026-04-18T20:00:56.520,4,91,155313,119590,78.0
2026-04-18T20:00:56.540,4,92,155313,119590,78.0
2026-04-18T20:00:56.560,4,93,155318,119580,78.0
2026-04-18T20:00:56.580,4,94,155318,119580,78.0
2026-04-18T20:00:56.600,4,95,155318,119580,78.0
2026-04-18T20:00:56.620,4,96,155318,119580,78.0
2026-04-18T20:00:56.640,4,97,155323,119588,78.0
2026-04-18T20:00:56.660,4,98,155323,119588,78.0
2026-04-18T20:00:56.680,4,99,155323,119588,78.0
2026-04-18T20:00:56.700,4,100,155323,119588,78.0
2026-04-18T20:00:56.720,4,101,155347,119592,78.0
2026-04-18T20:00:56.740,4,102,155347,119592,78.0
2026-04-18T20:00:56.760,4,103,155347,119592,78.0
2026-04-18T20:00:56.780,4,104,155347,119592,78.0
2026-04-18T20:00:56.800,4,105,155361,119606,78.0
2026-04-18T20:00:56.820,4,106,155361,119606,78.0
2026-04-18T20:00:56.840,4,107,155361,119606,78.0
2026-04-18T20:00:56.860,4,108,155361,119606,78.0
2026-04-18T20:00:56.880,4,109,155367,119612,78.0
2026-04-18T20:00:56.900,4,110,155367,119612,78.0
2026-04-18T20:00:56.920,4,111,155367,119612,78.0
2026-04-18T20:00:56.940,4,112,155367,119612,78.0
2026-04-18T20:00:56.959,4,113,155361,119606,78.0
2026-04-18T20:00:56.979,4,114,155361,119606,78.0
2026-04-18T20:00:57.000,4,115,155361,119606,78.0
2026-04-18T20:00:57.019,4,116,155361,119606,78.0
2026-04-18T20:00:57.040,4,117,155358,119597,78.0
2026-04-18T20:00:57.059,4,118,155358,119597,78.0
2026-04-18T20:00:57.079,4,119,155358,119597,78.0
2026-04-18T20:00:57.099,4,120,155358,119597,78.0
2026-04-18T20:00:57.120,4,121,155322,119598,78.0
2026-04-18T20:00:57.140,4,122,155322,119598,78.0
2026-04-18T20:00:57.159,4,123,155322,119598,78.0
2026-04-18T20:00:57.179,4,124,155322,119598,78.0
2026-04-18T20:00:57.199,4,125,155302,119592,78.0
2026-04-18T20:00:57.219,4,126,155302,119592,78.0
2026-04-18T20:00:57.239,4,127,155302,119592,78.0
2026-04-18T20:00:57.259,4,128,155302,119592,78.0
2026-04-18T20:00:57.279,4,129,155305,119589,78.0
2026-04-18T20:00:57.299,4,130,155305,119589,78.0
2026-04-18T20:00:57.319,4,131,155305,119589,78.0
2026-04-18T20:00:57.339,4,132,155305,119589,78.0
2026-04-18T20:00:57.359,4,133,155291,119581,78.0
2026-04-18T20:00:57.379,4,134,155291,119581,78.0
2026-04-18T20:00:57.399,4,135,155291,119581,78.0
2026-04-18T20:00:57.419,4,136,155291,119581,78.0
2026-04-18T20:00:57.439,4,137,155276,119573,78.0
2026-04-18T20:00:57.459,4,138,155276,119573,78.0
2026-04-18T20:00:57.479,4,139,155276,119573,78.0
2026-04-18T20:00:57.499,4,140,155276,119573,78.0
2026-04-18T20:00:57.519,4,141,155259,119583,78.0
2026-04-18T20:00:57.539,4,142,155259,119583,78.0
2026-04-18T20:00:57.559,4,143,155259,119583,78.0
2026-04-18T20:00:57.579,4,144,155259,119583,78.0
2026-04-18T20:00:57.599,4,145,155271,119579,78.0
2026-04-18T20:00:57.619,4,146,155271,119579,78.0
2026-04-18T20:00:57.639,4,147,155271,119579,78.0
2026-04-18T20:00:57.658,4,148,155271,119579,78.0
2026-04-18T20:00:57.679,4,149,155274,119576,78.0
2026-04-18T20:00:57.699,4,150,155274,119576,78.0
2026-04-18T20:00:57.719,4,151,155274,119576,78.0
2026-04-18T20:00:57.739,4,152,155274,119576,78.0
2026-04-18T20:00:57.759,4,153,155267,119579,78.0
2026-04-18T20:00:57.779,4,154,155267,119579,78.0
2026-04-18T20:00:57.799,4,155,155267,119579,78.0
2026-04-18T20:00:57.818,4,156,155267,119579,78.0
2026-04-18T20:00:57.839,4,157,155246,119557,78.0
2026-04-18T20:00:57.859,4,158,155246,119557,78.0
2026-04-18T20:00:57.879,4,159,155246,119557,78.0
2026-04-18T20:00:57.899,4,160,155246,119557,78.0
2026-04-18T20:00:57.918,4,161,155222,119564,78.0
2026-04-18T20:00:57.939,4,162,155222,119564,78.0
2026-04-18T20:00:57.958,4,163,155222,119564,78.0
2026-04-18T20:00:57.978,4,164,155222,119564,78.0
2026-04-18T20:00:57.998,4,165,155229,119564,78.0
2026-04-18T20:00:58.018,4,166,155229,119564,78.0
2026-04-18T20:00:58.038,4,167,155229,119564,78.0
2026-04-18T20:00:58.058,4,168,155229,119564,78.0
2026-04-18T20:00:58.078,4,169,155204,119566,78.0
2026-04-18T20:00:58.098,4,170,155204,119566,78.0
2026-04-18T20:00:58.118,4,171,155204,119566,78.0
2026-04-18T20:00:58.138,4,172,155204,119566,78.0
2026-04-18T20:00:58.158,4,173,155206,119570,78.0
2026-04-18T20:00:58.178,4,174,155206,119570,78.0
2026-04-18T20:00:58.198,4,175,155206,119570,78.0
2026-04-18T20:00:58.218,4,176,155206,119570,78.0
2026-04-18T20:00:58.238,4,177,155212,119570,78.0
2026-04-18T20:00:58.258,4,178,155212,119570,78.0
2026-04-18T20:00:58.278,4,179,155212,119570,78.0
2026-04-18T20:00:58.298,4,180,155212,119570,78.0
2026-04-18T20:00:58.318,4,181,155216,119570,78.0
2026-04-18T20:00:58.338,4,182,155216,119570,78.0
2026-04-18T20:00:58.358,4,183,155216,119570,78.0
2026-04-18T20:00:58.378,4,184,155216,119570,78.0
2026-04-18T20:00:58.398,4,185,155236,119602,78.0
2026-04-18T20:00:58.418,4,186,155236,119602,78.0
2026-04-18T20:00:58.438,4,187,155236,119602,78.0
2026-04-18T20:00:58.458,4,188,155236,119602,78.0
2026-04-18T20:00:58.478,4,189,155237,119602,78.0
2026-04-18T20:00:58.498,4,190,155237,119602,78.0
2026-04-18T20:00:58.518,4,191,155237,119602,78.0
2026-04-18T20:00:58.538,4,192,155237,119602,78.0
2026-04-18T20:00:58.558,4,193,155215,119602,78.0
2026-04-18T20:00:58.578,4,194,155215,119602,78.0
2026-04-18T20:00:58.598,4,195,155215,119602,78.0
2026-04-18T20:00:58.617,4,196,155215,119602,78.0
2026-04-18T20:00:58.637,4,197,155215,119607,78.0
2026-04-18T20:00:58.657,4,198,155215,119607,78.0
2026-04-18T20:00:58.678,4,199,155215,119607,78.0
2026-04-18T20:00:58.698,4,200,155215,119607,78.0
2026-04-18T20:00:58.718,4,201,155193,119601,78.0
2026-04-18T20:00:58.738,4,202,155193,119601,78.0
2026-04-18T20:00:58.758,4,203,155193,119601,78.0
2026-04-18T20:00:58.778,4,204,155193,119601,78.0
2026-04-18T20:00:58.798,4,205,155190,119604,78.0
2026-04-18T20:00:58.817,4,206,155190,119604,78.0
2026-04-18T20:00:58.837,4,207,155190,119604,78.0
2026-04-18T20:00:58.857,4,208,155190,119604,78.0
2026-04-18T20:00:58.877,4,209,155180,119602,78.0
2026-04-18T20:00:58.897,4,210,155180,119602,78.0
2026-04-18T20:00:58.917,4,211,155180,119602,78.0
2026-04-18T20:00:58.937,4,212,155180,119602,78.0
2026-04-18T20:00:58.957,4,213,155186,119618,78.0
2026-04-18T20:00:58.977,4,214,155186,119618,78.0
2026-04-18T20:00:58.997,4,215,155186,119618,78.0
2026-04-18T20:00:59.017,4,216,155186,119618,78.0
2026-04-18T20:00:59.037,4,217,155193,119621,78.0
2026-04-18T20:00:59.057,4,218,155193,119621,78.0
2026-04-18T20:00:59.077,4,219,155193,119621,78.0
2026-04-18T20:00:59.098,4,220,155193,119621,78.0
2026-04-18T20:00:59.117,4,221,155215,119639,78.0
2026-04-18T20:00:59.137,4,222,155215,119639,78.0
2026-04-18T20:00:59.157,4,223,155215,119639,78.0
2026-04-18T20:00:59.177,4,224,155215,119639,78.0
2026-04-18T20:00:59.197,4,225,155248,119657,78.0
2026-04-18T20:00:59.217,4,226,155248,119657,78.0
2026-04-18T20:00:59.237,4,227,155248,119657,78.0
2026-04-18T20:00:59.257,4,228,155248,119657,78.0
2026-04-18T20:00:59.277,4,229,155248,119659,78.0
2026-04-18T20:00:59.297,4,230,155248,119659,78.0
2026-04-18T20:00:59.317,4,231,155248,119659,78.0
2026-04-18T20:00:59.337,4,232,155248,119659,78.0
2026-04-18T20:00:59.357,4,233,155241,119659,78.0
2026-04-18T20:00:59.377,4,234,155241,119659,78.0
2026-04-18T20:00:59.397,4,235,155241,119659,78.0
2026-04-18T20:00:59.417,4,236,155241,119659,78.0
2026-04-18T20:00:59.437,4,237,155218,119653,78.0
2026-04-18T20:00:59.457,4,238,155218,119653,78.0
2026-04-18T20:00:59.477,4,239,155218,119653,78.0
2026-04-18T20:00:59.497,4,240,155218,119653,78.0
2026-04-18T20:00:59.517,4,241,155225,119653,78.0
2026-04-18T20:00:59.536,4,242,155225,119653,78.0
2026-04-18T20:00:59.557,4,243,155225,119653,78.0
2026-04-18T20:00:59.577,4,244,155225,119653,78.0
2026-04-18T20:00:59.597,4,245,155235,119661,78.0
2026-04-18T20:00:59.617,4,246,155235,119661,78.0
2026-04-18T20:00:59.636,4,247,155235,119661,78.0
2026-04-18T20:00:59.656,4,248,155235,119661,78.0
2026-04-18T20:00:59.677,4,249,155234,119656,78.0
2026-04-18T20:00:59.697,4,250,155234,119656,78.0
2026-04-18T20:00:59.716,4,251,155234,119656,78.0
2026-04-18T20:00:59.736,4,252,155234,119656,78.0
2026-04-18T20:00:59.756,4,253,155221,119655,78.0
2026-04-18T20:00:59.777,4,254,155221,119655,78.0
2026-04-18T20:00:59.797,4,255,155221,119655,78.0
2026-04-18T20:00:59.817,4,256,155221,119655,78.0
2026-04-18T20:00:59.836,4,257,155225,119656,78.0
2026-04-18T20:00:59.857,4,258,155225,119656,78.0
2026-04-18T20:00:59.876,4,259,155225,119656,78.0
2026-04-18T20:00:59.896,4,260,155225,119656,78.0
2026-04-18T20:00:59.916,4,261,155233,119660,78.0
2026-04-18T20:00:59.936,4,262,155233,119660,78.0
2026-04-18T20:00:59.956,4,263,155233,119660,78.0
2026-04-18T20:00:59.976,4,264,155233,119660,78.0
2026-04-18T20:00:59.996,4,265,155252,119675,78.0
2026-04-18T20:01:00.016,4,266,155252,119675,78.0
2026-04-18T20:01:00.036,4,267,155252,119675,78.0
2026-04-18T20:01:00.056,4,268,155252,119675,78.0
2026-04-18T20:01:00.076,4,269,155236,119662,78.0
2026-04-18T20:01:00.096,4,270,155236,119662,78.0
2026-04-18T20:01:00.116,4,271,155236,119662,78.0
2026-04-18T20:01:00.136,4,272,155236,119662,78.0
2026-04-18T20:01:00.156,4,273,155235,119664,78.0
2026-04-18T20:01:00.176,4,274,155235,119664,78.0
2026-04-18T20:01:00.196,4,275,155235,119664,78.0
2026-04-18T20:01:00.216,4,276,155235,119664,78.0
2026-04-18T20:01:00.236,4,277,155228,119657,78.0
2026-04-18T20:01:00.255,4,278,155228,119657,78.0
2026-04-18T20:01:00.275,4,279,155228,119657,78.0
2026-04-18T20:01:00.295,4,280,155228,119657,78.0
2026-04-18T20:01:00.315,4,281,155225,119657,78.0
2026-04-18T20:01:00.335,4,282,155225,119657,78.0
2026-04-18T20:01:00.355,4,283,155225,119657,78.0
2026-04-18T20:01:00.376,4,284,155225,119657,78.0
2026-04-18T20:01:00.395,4,285,155215,119654,78.0
2026-04-18T20:01:00.416,4,286,155215,119654,78.0
2026-04-18T20:01:00.435,4,287,155215,119654,78.0
2026-04-18T20:01:00.455,4,288,155215,119654,78.0
2026-04-18T20:01:00.476,4,289,155219,119666,78.0
2026-04-18T20:01:00.496,4,290,155219,119666,78.0
2026-04-18T20:01:00.516,4,291,155219,119666,78.0
2026-04-18T20:01:00.536,4,292,155219,119666,78.0
2026-04-18T20:01:00.556,4,293,155227,119672,78.0
2026-04-18T20:01:00.575,4,294,155227,119672,78.0
2026-04-18T20:01:00.595,4,295,155227,119672,78.0
2026-04-18T20:01:00.615,4,296,155227,119672,78.0
2026-04-18T20:01:00.635,4,297,155236,119670,78.0
2026-04-18T20:01:00.655,4,298,155236,119670,78.0
2026-04-18T20:01:00.675,4,299,155236,119670,78.0
2026-04-18T20:01:00.695,4,300,155236,119670,78.0
2026-04-18T20:01:00.715,4,301,155250,119683,78.0
2026-04-18T20:01:00.735,4,302,155250,119683,78.0
2026-04-18T20:01:00.755,4,303,155250,119683,78.0
2026-04-18T20:01:00.775,4,304,155250,119683,78.0
2026-04-18T20:01:00.795,4,305,155257,119688,78.0
2026-04-18T20:01:00.815,4,306,155257,119688,78.0
2026-04-18T20:01:00.835,4,307,155257,119688,78.0
2026-04-18T20:01:00.855,4,308,155257,119688,78.0
2026-04-18T20:01:00.875,4,309,155242,119685,78.0
2026-04-18T20:01:00.895,4,310,155242,119685,78.0
2026-04-18T20:01:00.915,4,311,155242,119685,78.0
2026-04-18T20:01:00.934,4,312,155242,119685,78.0
2026-04-18T20:01:00.955,4,313,155225,119680,78.0
2026-04-18T20:01:00.975,4,314,155225,119680,78.0
2026-04-18T20:01:00.995,4,315,155225,119680,78.0
2026-04-18T20:01:01.015,4,316,155225,119680,78.0
2026-04-18T20:01:01.035,4,317,155236,119688,78.0
2026-04-18T20:01:01.055,4,318,155236,119688,78.0
2026-04-18T20:01:01.075,4,319,155236,119688,78.0
2026-04-18T20:01:01.095,4,320,155236,119688,78.0
2026-04-18T20:01:01.115,4,321,155225,119682,78.0
2026-04-18T20:01:01.135,4,322,155225,119682,78.0
2026-04-18T20:01:01.155,4,323,155225,119682,78.0
2026-04-18T20:01:01.175,4,324,155225,119682,78.0
2026-04-18T20:01:01.195,4,325,155213,119682,78.0
2026-04-18T20:01:01.214,4,326,155213,119682,78.0
2026-04-18T20:01:01.234,4,327,155213,119682,78.0
2026-04-18T20:01:01.254,4,328,155213,119682,78.0
2026-04-18T20:01:01.274,4,329,155239,119692,78.0
2026-04-18T20:01:01.295,4,330,155239,119692,78.0
2026-04-18T20:01:01.315,4,331,155239,119692,78.0
2026-04-18T20:01:01.334,4,332,155239,119692,78.0
2026-04-18T20:01:01.354,4,333,155258,119691,78.0
2026-04-18T20:01:01.374,4,334,155258,119691,78.0
2026-04-18T20:01:01.394,4,335,155258,119691,78.0
2026-04-18T20:01:01.414,4,336,155258,119691,78.0
2026-04-18T20:01:01.435,4,337,155283,119711,78.0
2026-04-18T20:01:01.454,4,338,155283,119711,78.0
2026-04-18T20:01:01.474,4,339,155283,119711,78.0
2026-04-18T20:01:01.494,4,340,155283,119711,78.0
2026-04-18T20:01:01.514,4,341,155292,119726,78.0
2026-04-18T20:01:01.534,4,342,155292,119726,78.0
2026-04-18T20:01:01.554,4,343,155292,119726,78.0
2026-04-18T20:01:01.574,4,344,155292,119726,78.0
2026-04-18T20:01:01.594,4,345,155309,119739,78.0
2026-04-18T20:01:01.614,4,346,155309,119739,78.0
2026-04-18T20:01:01.634,4,347,155309,119739,78.0
2026-04-18T20:01:01.654,4,348,155309,119739,78.0
2026-04-18T20:01:01.674,4,349,155310,119730,78.0
2026-04-18T20:01:01.694,4,350,155310,119730,78.0
2026-04-18T20:01:01.714,4,351,155310,119730,78.0
2026-04-18T20:01:01.733,4,352,155310,119730,78.0
2026-04-18T20:01:01.754,4,353,155307,119731,78.0
2026-04-18T20:01:01.774,4,354,155307,119731,78.0
2026-04-18T20:01:01.794,4,355,155307,119731,78.0
2026-04-18T20:01:01.814,4,356,155307,119731,78.0
2026-04-18T20:01:01.834,4,357,155295,119727,78.0
2026-04-18T20:01:01.854,4,358,155295,119727,78.0
2026-04-18T20:01:01.874,4,359,155295,119727,78.0
2026-04-18T20:01:01.894,4,360,155295,119727,78.0
2026-04-18T20:01:01.914,4,361,155292,119727,78.0
2026-04-18T20:01:01.934,4,362,155292,119727,78.0
2026-04-18T20:01:01.954,4,363,155292,119727,78.0
2026-04-18T20:01:01.973,4,364,155292,119727,78.0
2026-04-18T20:01:01.994,4,365,155297,119727,78.0
2026-04-18T20:01:02.014,4,366,155297,119727,78.0
2026-04-18T20:01:02.033,4,367,155297,119727,78.0
2026-04-18T20:01:02.053,4,368,155297,119727,78.0
2026-04-18T20:01:02.073,4,369,155299,119735,78.0
2026-04-18T20:01:02.093,4,370,155299,119735,78.0
2026-04-18T20:01:02.113,4,371,155299,119735,78.0
2026-04-18T20:01:02.134,4,372,155299,119735,78.0
2026-04-18T20:01:02.153,4,373,155287,119726,78.0
2026-04-18T20:01:02.173,4,374,155287,119726,78.0
2026-04-18T20:01:02.194,4,375,155287,119726,78.0
2026-04-18T20:01:02.213,4,376,155287,119726,78.0
2026-04-18T20:01:02.233,4,377,155324,119737,78.0
2026-04-18T20:01:02.253,4,378,155324,119737,78.0
2026-04-18T20:01:02.273,4,379,155324,119737,78.0
2026-04-18T20:01:02.293,4,380,155324,119737,78.0
2026-04-18T20:01:02.313,4,381,155331,119742,78.0
2026-04-18T20:01:02.333,4,382,155331,119742,78.0
2026-04-18T20:01:02.353,4,383,155331,119742,78.0
2026-04-18T20:01:02.373,4,384,155331,119742,78.0
2026-04-18T20:01:02.393,4,385,155328,119741,78.0
2026-04-18T20:01:02.413,4,386,155328,119741,78.0
2026-04-18T20:01:02.433,4,387,155328,119741,78.0
2026-04-18T20:01:02.453,4,388,155328,119741,78.0
2026-04-18T20:01:02.472,4,389,155321,119748,78.0
2026-04-18T20:01:02.492,4,390,155321,119748,78.0
2026-04-18T20:01:02.512,4,391,155321,119748,78.0
2026-04-18T20:01:02.532,4,392,155321,119748,78.0
2026-04-18T20:01:02.552,4,393,155307,119742,78.0
2026-04-18T20:01:02.572,4,394,155307,119742,78.0
2026-04-18T20:01:02.593,4,395,155307,119742,78.0
2026-04-18T20:01:02.612,4,396,155307,119742,78.0
2026-04-18T20:01:02.633,4,397,155307,119737,78.0
2026-04-18T20:01:02.653,4,398,155307,119737,78.0
2026-04-18T20:01:02.672,4,399,155307,119737,78.0
2026-04-18T20:01:02.693,4,400,155307,119737,78.0
2026-04-18T20:01:02.712,4,401,155321,119748,78.0
2026-04-18T20:01:02.732,4,402,155321,119748,78.0
2026-04-18T20:01:02.752,4,403,155321,119748,78.0
2026-04-18T20:01:02.772,4,404,155321,119748,78.0
2026-04-18T20:01:02.792,4,405,155311,119741,78.0
2026-04-18T20:01:02.812,4,406,155311,119741,78.0
2026-04-18T20:01:02.833,4,407,155311,119741,78.0
2026-04-18T20:01:02.852,4,408,155311,119741,78.0
2026-04-18T20:01:02.873,4,409,155319,119744,78.0
2026-04-18T20:01:02.892,4,410,155319,119744,78.0
2026-04-18T20:01:02.913,4,411,155319,119744,78.0
2026-04-18T20:01:02.932,4,412,155319,119744,78.0
2026-04-18T20:01:02.952,4,413,155312,119733,78.0
2026-04-18T20:01:02.972,4,414,155312,119733,78.0
2026-04-18T20:01:02.992,4,415,155312,119733,78.0
2026-04-18T20:01:03.012,4,416,155312,119733,78.0
2026-04-18T20:01:03.032,4,417,155335,119741,78.0
2026-04-18T20:01:03.052,4,418,155335,119741,78.0
2026-04-18T20:01:03.073,4,419,155335,119741,78.0
2026-04-18T20:01:03.092,4,420,155335,119741,78.0
2026-04-18T20:01:03.112,4,421,155343,119745,78.0
2026-04-18T20:01:03.132,4,422,155343,119745,78.0
2026-04-18T20:01:03.152,4,423,155343,119745,78.0
2026-04-18T20:01:03.172,4,424,155343,119745,78.0
2026-04-18T20:01:03.192,4,425,155354,119758,78.0
2026-04-18T20:01:03.212,4,426,155354,119758,78.0
2026-04-18T20:01:03.232,4,427,155354,119758,78.0
2026-04-18T20:01:03.252,4,428,155354,119758,78.0
2026-04-18T20:01:03.272,4,429,155349,119766,78.0
2026-04-18T20:01:03.292,4,430,155349,119766,78.0
2026-04-18T20:01:03.312,4,431,155349,119766,78.0
2026-04-18T20:01:03.332,4,432,155349,119766,78.0
2026-04-18T20:01:03.352,4,433,155340,119756,78.0
2026-04-18T20:01:03.372,4,434,155340,119756,78.0
2026-04-18T20:01:03.392,4,435,155340,119756,78.0
2026-04-18T20:01:03.412,4,436,155340,119756,78.0
2026-04-18T20:01:03.431,4,437,155334,119762,78.0
2026-04-18T20:01:03.451,4,438,155334,119762,78.0
2026-04-18T20:01:03.471,4,439,155334,119762,78.0
2026-04-18T20:01:03.491,4,440,155334,119762,78.0
2026-04-18T20:01:03.511,4,441,155322,119750,78.0
2026-04-18T20:01:03.531,4,442,155322,119750,78.0
2026-04-18T20:01:03.551,4,443,155322,119750,78.0
2026-04-18T20:01:03.571,4,444,155322,119750,78.0
2026-04-18T20:01:03.591,4,445,155319,119752,78.0
2026-04-18T20:01:03.611,4,446,155319,119752,78.0
2026-04-18T20:01:03.631,4,447,155319,119752,78.0
2026-04-18T20:01:03.651,4,448,155319,119752,78.0
2026-04-18T20:01:03.671,4,449,155335,119759,78.0
2026-04-18T20:01:03.691,4,450,155335,119759,78.0
2026-04-18T20:01:03.711,4,451,155335,119759,78.0
2026-04-18T20:01:03.731,4,452,155335,119759,78.0
2026-04-18T20:01:03.751,4,453,155343,119760,78.0
2026-04-18T20:01:03.771,4,454,155343,119760,78.0
2026-04-18T20:01:03.791,4,455,155343,119760,78.0
2026-04-18T20:01:03.811,4,456,155343,119760,78.0
2026-04-18T20:01:03.831,4,457,155355,119763,78.0
2026-04-18T20:01:03.851,4,458,155355,119763,78.0
2026-04-18T20:01:03.871,4,459,155355,119763,78.0
2026-04-18T20:01:03.891,4,460,155355,119763,78.0
2026-04-18T20:01:03.911,4,461,155370,119771,78.0
2026-04-18T20:01:03.931,4,462,155370,119771,78.0
2026-04-18T20:01:03.951,4,463,155370,119771,78.0
2026-04-18T20:01:03.971,4,464,155370,119771,78.0
2026-04-18T20:01:03.991,4,465,155360,119771,78.0
2026-04-18T20:01:04.011,4,466,155360,119771,78.0
2026-04-18T20:01:04.031,4,467,155360,119771,78.0
2026-04-18T20:01:04.051,4,468,155360,119771,78.0
2026-04-18T20:01:04.071,4,469,155352,119763,78.0
2026-04-18T20:01:04.091,4,470,155352,119763,78.0
2026-04-18T20:01:04.111,4,471,155352,119763,78.0
2026-04-18T20:01:04.131,4,472,155352,119763,78.0
2026-04-18T20:01:04.151,4,473,155332,119755,78.0
2026-04-18T20:01:04.171,4,474,155332,119755,78.0
2026-04-18T20:01:04.191,4,475,155332,119755,78.0
2026-04-18T20:01:04.211,4,476,155332,119755,78.0
2026-04-18T20:01:04.231,4,477,155313,119758,78.0
2026-04-18T20:01:04.251,4,478,155313,119758,78.0
2026-04-18T20:01:04.271,4,479,155313,119758,78.0
2026-04-18T20:01:04.291,4,480,155313,119758,78.0
2026-04-18T20:01:04.311,4,481,155316,119751,78.0
2026-04-18T20:01:04.331,4,482,155316,119751,78.0
2026-04-18T20:01:04.350,4,483,155316,119751,78.0
2026-04-18T20:01:04.370,4,484,155316,119751,78.0
2026-04-18T20:01:04.391,4,485,155302,119747,78.0
2026-04-18T20:01:04.411,4,486,155302,119747,78.0
2026-04-18T20:01:04.431,4,487,155302,119747,78.0
2026-04-18T20:01:04.451,4,488,155302,119747,78.0
2026-04-18T20:01:04.471,4,489,155307,119747,78.0
2026-04-18T20:01:04.490,4,490,155307,119747,78.0
2026-04-18T20:01:04.511,4,491,155307,119747,78.0
2026-04-18T20:01:04.530,4,492,155307,119747,78.0
2026-04-18T20:01:04.550,4,493,155300,119751,78.0
2026-04-18T20:01:04.570,4,494,155300,119751,78.0
2026-04-18T20:01:04.590,4,495,155300,119751,78.0
2026-04-18T20:01:04.610,4,496,155300,119751,78.0
2026-04-18T20:01:04.631,4,497,155295,119758,78.0
2026-04-18T20:01:04.650,4,498,155295,119758,78.0
2026-04-18T20:01:04.670,4,499,155295,119758,78.0
2026-04-18T20:01:04.690,4,500,155295,119758,78.0
2026-04-18T20:01:04.710,4,501,155302,119751,78.0
2026-04-18T20:01:07.686,5,0,154872,119608,76.0
2026-04-18T20:01:07.706,5,1,154872,119608,76.0
2026-04-18T20:01:07.726,5,2,154872,119608,76.0
2026-04-18T20:01:07.746,5,3,154909,119641,76.0
2026-04-18T20:01:07.766,5,4,154909,119641,76.0
2026-04-18T20:01:07.787,5,5,154909,119641,76.0
2026-04-18T20:01:07.806,5,6,154909,119641,76.0
2026-04-18T20:01:07.827,5,7,154943,119652,76.0
2026-04-18T20:01:07.847,5,8,154943,119652,76.0
2026-04-18T20:01:07.866,5,9,154943,119652,76.0
2026-04-18T20:01:07.886,5,10,154943,119652,76.0
2026-04-18T20:01:07.906,5,11,154953,119661,76.0
2026-04-18T20:01:07.926,5,12,154953,119661,76.0
2026-04-18T20:01:07.946,5,13,154953,119661,76.0
2026-04-18T20:01:07.966,5,14,154953,119661,76.0
2026-04-18T20:01:07.986,5,15,154982,119690,76.0
2026-04-18T20:01:08.006,5,16,154982,119690,76.0
2026-04-18T20:01:08.026,5,17,154982,119690,76.0
2026-04-18T20:01:08.046,5,18,154982,119690,76.0
2026-04-18T20:01:08.066,5,19,155011,119695,76.0
2026-04-18T20:01:08.086,5,20,155011,119695,76.0
2026-04-18T20:01:08.106,5,21,155011,119695,76.0
2026-04-18T20:01:08.126,5,22,155011,119695,76.0
2026-04-18T20:01:08.146,5,23,155024,119710,76.0
2026-04-18T20:01:08.166,5,24,155024,119710,76.0
2026-04-18T20:01:08.186,5,25,155024,119710,76.0
2026-04-18T20:01:08.206,5,26,155024,119710,76.0
2026-04-18T20:01:08.226,5,27,155051,119724,76.0
2026-04-18T20:01:08.246,5,28,155051,119724,76.0
2026-04-18T20:01:08.266,5,29,155051,119724,76.0
2026-04-18T20:01:08.286,5,30,155051,119724,76.0
2026-04-18T20:01:08.306,5,31,155066,119735,76.0
2026-04-18T20:01:08.326,5,32,155066,119735,76.0
2026-04-18T20:01:08.346,5,33,155066,119735,76.0
2026-04-18T20:01:08.366,5,34,155066,119735,76.0
2026-04-18T20:01:08.385,5,35,155078,119730,76.0
2026-04-18T20:01:08.406,5,36,155078,119730,76.0
2026-04-18T20:01:08.426,5,37,155078,119730,76.0
2026-04-18T20:01:08.446,5,38,155078,119730,76.0
2026-04-18T20:01:08.466,5,39,155076,119739,76.0
2026-04-18T20:01:08.486,5,40,155076,119739,76.0
2026-04-18T20:01:08.505,5,41,155076,119739,76.0
2026-04-18T20:01:08.525,5,42,155076,119739,76.0
2026-04-18T20:01:08.545,5,43,155093,119751,76.0
2026-04-18T20:01:08.565,5,44,155093,119751,76.0
2026-04-18T20:01:08.586,5,45,155093,119751,76.0
2026-04-18T20:01:08.606,5,46,155093,119751,76.0
2026-04-18T20:01:08.625,5,47,155095,119749,76.0
2026-04-18T20:01:08.645,5,48,155095,119749,76.0
2026-04-18T20:01:08.666,5,49,155095,119749,76.0
2026-04-18T20:01:08.686,5,50,155095,119749,76.0
2026-04-18T20:01:08.705,5,51,155102,119737,76.0
2026-04-18T20:01:08.725,5,52,155102,119737,76.0
2026-04-18T20:01:08.745,5,53,155102,119737,76.0
2026-04-18T20:01:08.766,5,54,155102,119737,76.0
2026-04-18T20:01:08.785,5,55,155087,119737,76.0
2026-04-18T20:01:08.805,5,56,155087,119737,76.0
2026-04-18T20:01:08.825,5,57,155087,119737,76.0
2026-04-18T20:01:08.845,5,58,155087,119737,76.0
2026-04-18T20:01:08.865,5,59,155069,119728,76.0
2026-04-18T20:01:08.885,5,60,155069,119728,76.0
2026-04-18T20:01:08.904,5,61,155069,119728,76.0
2026-04-18T20:01:08.925,5,62,155069,119728,76.0
2026-04-18T20:01:08.945,5,63,155087,119732,76.0
2026-04-18T20:01:08.965,5,64,155087,119732,76.0
2026-04-18T20:01:08.985,5,65,155087,119732,76.0
2026-04-18T20:01:09.005,5,66,155087,119732,76.0
2026-04-18T20:01:09.025,5,67,155096,119743,76.0
2026-04-18T20:01:09.045,5,68,155096,119743,76.0
2026-04-18T20:01:09.065,5,69,155096,119743,76.0
2026-04-18T20:01:09.085,5,70,155096,119743,76.0
2026-04-18T20:01:09.104,5,71,155105,119743,76.0
2026-04-18T20:01:09.124,5,72,155105,119743,76.0
2026-04-18T20:01:09.144,5,73,155105,119743,76.0
2026-04-18T20:01:09.164,5,74,155105,119743,76.0
2026-04-18T20:01:09.184,5,75,155116,119753,76.0
2026-04-18T20:01:09.204,5,76,155116,119753,76.0
2026-04-18T20:01:09.224,5,77,155116,119753,76.0
2026-04-18T20:01:09.245,5,78,155116,119753,76.0
2026-04-18T20:01:09.265,5,79,155130,119764,76.0
2026-04-18T20:01:09.285,5,80,155130,119764,76.0
2026-04-18T20:01:09.304,5,81,155130,119764,76.0
2026-04-18T20:01:09.324,5,82,155130,119764,76.0
2026-04-18T20:01:09.344,5,83,155147,119767,76.0
2026-04-18T20:01:09.364,5,84,155147,119767,76.0
2026-04-18T20:01:09.384,5,85,155147,119767,76.0
2026-04-18T20:01:09.404,5,86,155147,119767,76.0
2026-04-18T20:01:09.424,5,87,155155,119768,76.0
2026-04-18T20:01:09.444,5,88,155155,119768,76.0
2026-04-18T20:01:09.464,5,89,155155,119768,76.0
2026-04-18T20:01:09.484,5,90,155155,119768,76.0
2026-04-18T20:01:09.504,5,91,155146,119777,76.0
2026-04-18T20:01:09.524,5,92,155146,119777,76.0
2026-04-18T20:01:09.544,5,93,155146,119777,76.0
2026-04-18T20:01:09.564,5,94,155146,119777,76.0
2026-04-18T20:01:09.584,5,95,155153,119767,76.0
2026-04-18T20:01:09.604,5,96,155153,119767,76.0
2026-04-18T20:01:09.624,5,97,155153,119767,76.0
2026-04-18T20:01:09.644,5,98,155153,119767,76.0
2026-04-18T20:01:09.664,5,99,155142,119765,76.0
2026-04-18T20:01:09.684,5,100,155142,119765,76.0
2026-04-18T20:01:09.704,5,101,155142,119765,76.0
2026-04-18T20:01:09.724,5,102,155142,119765,76.0
2026-04-18T20:01:09.744,5,103,155135,119769,76.0
2026-04-18T20:01:09.764,5,104,155135,119769,76.0
2026-04-18T20:01:09.784,5,105,155135,119769,76.0
2026-04-18T20:01:09.803,5,106,155135,119769,76.0
2026-04-18T20:01:09.823,5,107,155129,119766,76.0
2026-04-18T20:01:09.844,5,108,155129,119766,76.0
2026-04-18T20:01:09.864,5,109,155129,119766,76.0
2026-04-18T20:01:09.884,5,110,155129,119766,76.0
2026-04-18T20:01:09.903,5,111,155159,119775,76.0
2026-04-18T20:01:09.924,5,112,155159,119775,76.0
2026-04-18T20:01:09.943,5,113,155159,119775,76.0
2026-04-18T20:01:09.964,5,114,155159,119775,76.0
2026-04-18T20:01:09.983,5,115,155182,119792,76.0
2026-04-18T20:01:10.004,5,116,155182,119792,76.0
2026-04-18T20:01:10.023,5,117,155182,119792,76.0
2026-04-18T20:01:10.043,5,118,155182,119792,76.0
2026-04-18T20:01:10.063,5,119,155217,119805,76.0
2026-04-18T20:01:10.083,5,120,155217,119805,76.0
2026-04-18T20:01:10.103,5,121,155217,119805,76.0
2026-04-18T20:01:10.123,5,122,155217,119805,76.0
2026-04-18T20:01:10.143,5,123,155234,119810,76.0
2026-04-18T20:01:10.163,5,124,155234,119810,76.0
2026-04-18T20:01:10.183,5,125,155234,119810,76.0
2026-04-18T20:01:10.203,5,126,155234,119810,76.0
2026-04-18T20:01:10.223,5,127,155220,119808,76.0
2026-04-18T20:01:10.243,5,128,155220,119808,76.0
2026-04-18T20:01:10.263,5,129,155220,119808,76.0
2026-04-18T20:01:10.283,5,130,155220,119808,76.0
2026-04-18T20:01:10.303,5,131,155215,119813,76.0
2026-04-18T20:01:10.323,5,132,155215,119813,76.0
2026-04-18T20:01:10.344,5,133,155215,119813,76.0
2026-04-18T20:01:10.364,5,134,155215,119813,76.0
2026-04-18T20:01:10.383,5,135,155219,119809,76.0
2026-04-18T20:01:10.403,5,136,155219,119809,76.0
2026-04-18T20:01:10.423,5,137,155219,119809,76.0
2026-04-18T20:01:10.443,5,138,155219,119809,76.0
2026-04-18T20:01:10.463,5,139,155221,119805,76.0
2026-04-18T20:01:10.484,5,140,155221,119805,76.0
2026-04-18T20:01:10.504,5,141,155221,119805,76.0
2026-04-18T20:01:10.523,5,142,155221,119805,76.0
2026-04-18T20:01:10.543,5,143,155211,119805,76.0
2026-04-18T20:01:10.563,5,144,155211,119805,76.0
2026-04-18T20:01:10.583,5,145,155211,119805,76.0
2026-04-18T20:01:10.603,5,146,155211,119805,76.0
2026-04-18T20:01:10.623,5,147,155221,119799,76.0
2026-04-18T20:01:10.643,5,148,155221,119799,76.0
2026-04-18T20:01:10.663,5,149,155221,119799,76.0
2026-04-18T20:01:10.683,5,150,155221,119799,76.0
2026-04-18T20:01:10.703,5,151,155241,119803,76.0
2026-04-18T20:01:10.723,5,152,155241,119803,76.0
2026-04-18T20:01:10.743,5,153,155241,119803,76.0
2026-04-18T20:01:10.762,5,154,155241,119803,76.0
2026-04-18T20:01:10.783,5,155,155239,119805,76.0
2026-04-18T20:01:10.803,5,156,155239,119805,76.0
2026-04-18T20:01:10.823,5,157,155239,119805,76.0
2026-04-18T20:01:10.843,5,158,155239,119805,76.0
2026-04-18T20:01:10.863,5,159,155249,119806,76.0
2026-04-18T20:01:10.883,5,160,155249,119806,76.0
2026-04-18T20:01:10.903,5,161,155249,119806,76.0
2026-04-18T20:01:10.923,5,162,155249,119806,76.0
2026-04-18T20:01:10.942,5,163,155253,119815,76.0
2026-04-18T20:01:10.962,5,164,155253,119815,76.0
2026-04-18T20:01:10.982,5,165,155253,119815,76.0
2026-04-18T20:01:11.002,5,166,155253,119815,76.0
2026-04-18T20:01:11.022,5,167,155229,119803,76.0
2026-04-18T20:01:11.042,5,168,155229,119803,76.0
2026-04-18T20:01:11.062,5,169,155229,119803,76.0
2026-04-18T20:01:11.083,5,170,155229,119803,76.0
2026-04-18T20:01:11.103,5,171,155236,119807,76.0
2026-04-18T20:01:11.122,5,172,155236,119807,76.0
2026-04-18T20:01:11.142,5,173,155236,119807,76.0
2026-04-18T20:01:11.162,5,174,155236,119807,76.0
2026-04-18T20:01:11.183,5,175,155239,119807,76.0
2026-04-18T20:01:11.202,5,176,155239,119807,76.0
2026-04-18T20:01:11.223,5,177,155239,119807,76.0
2026-04-18T20:01:11.242,5,178,155239,119807,76.0
2026-04-18T20:01:11.262,5,179,155235,119800,76.0
2026-04-18T20:01:11.282,5,180,155235,119800,76.0
2026-04-18T20:01:11.302,5,181,155235,119800,76.0
2026-04-18T20:01:11.322,5,182,155235,119800,76.0
2026-04-18T20:01:11.341,5,183,155236,119808,76.0
2026-04-18T20:01:11.361,5,184,155236,119808,76.0
2026-04-18T20:01:11.382,5,185,155236,119808,76.0
2026-04-18T20:01:11.401,5,186,155236,119808,76.0
2026-04-18T20:01:11.422,5,187,155233,119811,76.0
2026-04-18T20:01:11.442,5,188,155233,119811,76.0
2026-04-18T20:01:11.462,5,189,155233,119811,76.0
2026-04-18T20:01:11.482,5,190,155233,119811,76.0
2026-04-18T20:01:11.502,5,191,155249,119820,76.0
2026-04-18T20:01:11.521,5,192,155249,119820,76.0
2026-04-18T20:01:11.542,5,193,155249,119820,76.0
2026-04-18T20:01:11.562,5,194,155249,119820,76.0
2026-04-18T20:01:11.582,5,195,155272,119823,76.0
2026-04-18T20:01:11.602,5,196,155272,119823,76.0
2026-04-18T20:01:11.622,5,197,155272,119823,76.0
2026-04-18T20:01:11.642,5,198,155272,119823,76.0
2026-04-18T20:01:11.661,5,199,155265,119826,76.0
2026-04-18T20:01:11.682,5,200,155265,119826,76.0
2026-04-18T20:01:11.702,5,201,155265,119826,76.0
2026-04-18T20:01:11.721,5,202,155265,119826,76.0
2026-04-18T20:01:11.742,5,203,155272,119827,76.0
2026-04-18T20:01:11.762,5,204,155272,119827,76.0
2026-04-18T20:01:11.781,5,205,155272,119827,76.0
2026-04-18T20:01:11.802,5,206,155272,119827,76.0
2026-04-18T20:01:11.822,5,207,155253,119824,76.0
2026-04-18T20:01:11.842,5,208,155253,119824,76.0
2026-04-18T20:01:11.862,5,209,155253,119824,76.0
2026-04-18T20:01:11.882,5,210,155253,119824,76.0
2026-04-18T20:01:11.901,5,211,155258,119826,76.0
2026-04-18T20:01:11.922,5,212,155258,119826,76.0
2026-04-18T20:01:11.942,5,213,155258,119826,76.0
2026-04-18T20:01:11.961,5,214,155258,119826,76.0
2026-04-18T20:01:11.981,5,215,155242,119826,76.0
2026-04-18T20:01:12.001,5,216,155242,119826,76.0
2026-04-18T20:01:12.021,5,217,155242,119826,76.0
2026-04-18T20:01:12.042,5,218,155242,119826,76.0
2026-04-18T20:01:12.061,5,219,155248,119823,76.0
2026-04-18T20:01:12.081,5,220,155248,119823,76.0
2026-04-18T20:01:12.102,5,221,155248,119823,76.0
2026-04-18T20:01:12.121,5,222,155248,119823,76.0
2026-04-18T20:01:12.141,5,223,155261,119828,76.0
2026-04-18T20:01:12.161,5,224,155261,119828,76.0
2026-04-18T20:01:12.181,5,225,155261,119828,76.0
2026-04-18T20:01:12.201,5,226,155261,119828,76.0
2026-04-18T20:01:12.221,5,227,155254,119828,76.0
2026-04-18T20:01:12.241,5,228,155254,119828,76.0
2026-04-18T20:01:12.261,5,229,155254,119828,76.0
2026-04-18T20:01:12.281,5,230,155254,119828,76.0
2026-04-18T20:01:12.301,5,231,155273,119844,76.0
2026-04-18T20:01:12.321,5,232,155273,119844,76.0
2026-04-18T20:01:12.341,5,233,155273,119844,76.0
2026-04-18T20:01:12.361,5,234,155273,119844,76.0
2026-04-18T20:01:12.381,5,235,155275,119846,76.0
2026-04-18T20:01:12.401,5,236,155275,119846,76.0
2026-04-18T20:01:12.421,5,237,155275,119846,76.0
2026-04-18T20:01:12.441,5,238,155275,119846,76.0
2026-04-18T20:01:12.461,5,239,155283,119846,76.0
2026-04-18T20:01:12.481,5,240,155283,119846,76.0
2026-04-18T20:01:12.501,5,241,155283,119846,76.0
2026-04-18T20:01:12.521,5,242,155283,119846,76.0
2026-04-18T20:01:12.541,5,243,155243,119829,76.0
2026-04-18T20:01:12.561,5,244,155243,119829,76.0
2026-04-18T20:01:12.581,5,245,155243,119829,76.0
2026-04-18T20:01:12.601,5,246,155243,119829,76.0
2026-04-18T20:01:12.621,5,247,155241,119816,76.0
2026-04-18T20:01:12.641,5,248,155241,119816,76.0
2026-04-18T20:01:12.661,5,249,155241,119816,76.0
2026-04-18T20:01:12.681,5,250,155241,119816,76.0
2026-04-18T20:01:12.700,5,251,155219,119821,76.0
2026-04-18T20:01:12.720,5,252,155219,119821,76.0
2026-04-18T20:01:12.741,5,253,155219,119821,76.0
2026-04-18T20:01:12.760,5,254,155219,119821,76.0
2026-04-18T20:01:12.781,5,255,155208,119821,76.0
2026-04-18T20:01:12.800,5,256,155208,119821,76.0
2026-04-18T20:01:12.821,5,257,155208,119821,76.0
2026-04-18T20:01:12.840,5,258,155208,119821,76.0
2026-04-18T20:01:12.860,5,259,155208,119821,76.0
2026-04-18T20:01:12.880,5,260,155208,119821,76.0
2026-04-18T20:01:12.900,5,261,155208,119821,76.0
2026-04-18T20:01:12.920,5,262,155208,119821,76.0
2026-04-18T20:01:12.940,5,263,155211,119823,76.0
2026-04-18T20:01:12.960,5,264,155211,119823,76.0
2026-04-18T20:01:12.980,5,265,155211,119823,76.0
2026-04-18T20:01:13.000,5,266,155211,119823,76.0
2026-04-18T20:01:13.020,5,267,155197,119815,76.0
2026-04-18T20:01:13.040,5,268,155197,119815,76.0
2026-04-18T20:01:13.060,5,269,155197,119815,76.0
2026-04-18T20:01:13.080,5,270,155197,119815,76.0
2026-04-18T20:01:13.100,5,271,155213,119817,76.0
2026-04-18T20:01:13.120,5,272,155213,119817,76.0
2026-04-18T20:01:13.140,5,273,155213,119817,76.0
2026-04-18T20:01:13.160,5,274,155213,119817,76.0
2026-04-18T20:01:13.180,5,275,155209,119820,76.0
2026-04-18T20:01:13.200,5,276,155209,119820,76.0
2026-04-18T20:01:13.220,5,277,155209,119820,76.0
2026-04-18T20:01:13.240,5,278,155209,119820,76.0
2026-04-18T20:01:13.260,5,279,155195,119819,76.0
2026-04-18T20:01:13.280,5,280,155195,119819,76.0
2026-04-18T20:01:13.300,5,281,155195,119819,76.0
2026-04-18T20:01:13.320,5,282,155195,119819,76.0
2026-04-18T20:01:13.340,5,283,155171,119802,76.0
2026-04-18T20:01:13.359,5,284,155171,119802,76.0
2026-04-18T20:01:13.379,5,285,155171,119802,76.0
2026-04-18T20:01:13.400,5,286,155171,119802,76.0
2026-04-18T20:01:13.419,5,287,155156,119792,76.0
2026-04-18T20:01:13.439,5,288,155156,119792,76.0
2026-04-18T20:01:13.459,5,289,155156,119792,76.0
2026-04-18T20:01:13.479,5,290,155156,119792,76.0
2026-04-18T20:01:13.499,5,291,155141,119793,76.0
2026-04-18T20:01:13.520,5,292,155141,119793,76.0
2026-04-18T20:01:13.539,5,293,155141,119793,76.0
2026-04-18T20:01:13.559,5,294,155141,119793,76.0
2026-04-18T20:01:13.579,5,295,155153,119804,76.0
2026-04-18T20:01:13.599,5,296,155153,119804,76.0
2026-04-18T20:01:13.619,5,297,155153,119804,76.0
2026-04-18T20:01:13.639,5,298,155153,119804,76.0
2026-04-18T20:01:13.660,5,299,155157,119818,76.0
2026-04-18T20:01:13.679,5,300,155157,119818,76.0
2026-04-18T20:01:13.700,5,301,155157,119818,76.0
2026-04-18T20:01:13.719,5,302,155157,119818,76.0
2026-04-18T20:01:13.739,5,303,155166,119820,76.0
2026-04-18T20:01:13.759,5,304,155166,119820,76.0
2026-04-18T20:01:13.779,5,305,155166,119820,76.0
2026-04-18T20:01:13.799,5,306,155166,119820,76.0
2026-04-18T20:01:13.819,5,307,155173,119823,76.0
2026-04-18T20:01:13.839,5,308,155173,119823,76.0
2026-04-18T20:01:13.859,5,309,155173,119823,76.0
2026-04-18T20:01:13.879,5,310,155173,119823,76.0
2026-04-18T20:01:13.899,5,311,155192,119833,76.0
2026-04-18T20:01:13.919,5,312,155192,119833,76.0
2026-04-18T20:01:13.939,5,313,155192,119833,76.0
2026-04-18T20:01:13.959,5,314,155192,119833,76.0
2026-04-18T20:01:13.979,5,315,155188,119843,76.0
2026-04-18T20:01:13.999,5,316,155188,119843,76.0
2026-04-18T20:01:14.019,5,317,155188,119843,76.0
2026-04-18T20:01:14.039,5,318,155188,119843,76.0
2026-04-18T20:01:14.059,5,319,155180,119847,76.0
2026-04-18T20:01:14.079,5,320,155180,119847,76.0
2026-04-18T20:01:14.099,5,321,155180,119847,76.0
2026-04-18T20:01:14.119,5,322,155180,119847,76.0
2026-04-18T20:01:14.139,5,323,155155,119833,76.0
2026-04-18T20:01:14.159,5,324,155155,119833,76.0
2026-04-18T20:01:14.179,5,325,155155,119833,76.0
2026-04-18T20:01:14.199,5,326,155155,119833,76.0
2026-04-18T20:01:14.219,5,327,155159,119830,76.0
2026-04-18T20:01:14.239,5,328,155159,119830,76.0
2026-04-18T20:01:14.259,5,329,155159,119830,76.0
2026-04-18T20:01:14.279,5,330,155159,119830,76.0
2026-04-18T20:01:14.298,5,331,155138,119827,76.0
2026-04-18T20:01:14.318,5,332,155138,119827,76.0
2026-04-18T20:01:14.339,5,333,155138,119827,76.0
2026-04-18T20:01:14.358,5,334,155138,119827,76.0
2026-04-18T20:01:14.379,5,335,155136,119841,76.0
2026-04-18T20:01:14.399,5,336,155136,119841,76.0
2026-04-18T20:01:14.418,5,337,155136,119841,76.0
2026-04-18T20:01:14.438,5,338,155136,119841,76.0
2026-04-18T20:01:14.459,5,339,155113,119841,76.0
2026-04-18T20:01:14.479,5,340,155113,119841,76.0
2026-04-18T20:01:14.499,5,341,155113,119841,76.0
2026-04-18T20:01:14.518,5,342,155113,119841,76.0
2026-04-18T20:01:14.539,5,343,155132,119833,76.0
2026-04-18T20:01:14.559,5,344,155132,119833,76.0
2026-04-18T20:01:14.578,5,345,155132,119833,76.0
2026-04-18T20:01:14.598,5,346,155132,119833,76.0
2026-04-18T20:01:14.619,5,347,155136,119842,76.0
2026-04-18T20:01:14.638,5,348,155136,119842,76.0
2026-04-18T20:01:14.658,5,349,155136,119842,76.0
2026-04-18T20:01:14.678,5,350,155136,119842,76.0
2026-04-18T20:01:14.698,5,351,155152,119840,76.0
2026-04-18T20:01:14.718,5,352,155152,119840,76.0
2026-04-18T20:01:14.738,5,353,155152,119840,76.0
2026-04-18T20:01:14.758,5,354,155152,119840,76.0
2026-04-18T20:01:14.777,5,355,155143,119829,76.0
2026-04-18T20:01:14.798,5,356,155143,119829,76.0
2026-04-18T20:01:14.818,5,357,155143,119829,76.0
2026-04-18T20:01:14.838,5,358,155143,119829,76.0
2026-04-18T20:01:14.858,5,359,155117,119823,76.0
2026-04-18T20:01:14.878,5,360,155117,119823,76.0
2026-04-18T20:01:14.898,5,361,155117,119823,76.0
2026-04-18T20:01:14.918,5,362,155117,119823,76.0
2026-04-18T20:01:14.938,5,363,155094,119801,76.0
2026-04-18T20:01:14.958,5,364,155094,119801,76.0
2026-04-18T20:01:14.978,5,365,155094,119801,76.0
2026-04-18T20:01:14.998,5,366,155094,119801,76.0
2026-04-18T20:01:15.018,5,367,155091,119814,76.0
2026-04-18T20:01:15.038,5,368,155091,119814,76.0
2026-04-18T20:01:15.058,5,369,155091,119814,76.0
2026-04-18T20:01:15.078,5,370,155091,119814,76.0
2026-04-18T20:01:15.097,5,371,155087,119817,76.0
2026-04-18T20:01:15.117,5,372,155087,119817,76.0
2026-04-18T20:01:15.138,5,373,155087,119817,76.0
2026-04-18T20:01:15.158,5,374,155087,119817,76.0
2026-04-18T20:01:15.178,5,375,155088,119808,76.0
2026-04-18T20:01:15.198,5,376,155088,119808,76.0
2026-04-18T20:01:15.218,5,377,155088,119808,76.0
2026-04-18T20:01:15.237,5,378,155088,119808,76.0
2026-04-18T20:01:15.257,5,379,155090,119810,76.0
2026-04-18T20:01:15.277,5,380,155090,119810,76.0
2026-04-18T20:01:15.298,5,381,155090,119810,76.0
2026-04-18T20:01:15.317,5,382,155090,119810,76.0
2026-04-18T20:01:15.337,5,383,155091,119811,76.0
2026-04-18T20:01:15.357,5,384,155091,119811,76.0
2026-04-18T20:01:15.377,5,385,155091,119811,76.0
2026-04-18T20:01:15.397,5,386,155091,119811,76.0
2026-04-18T20:01:15.418,5,387,155108,119813,76.0
2026-04-18T20:01:15.438,5,388,155108,119813,76.0
2026-04-18T20:01:15.457,5,389,155108,119813,76.0
2026-04-18T20:01:15.477,5,390,155108,119813,76.0
2026-04-18T20:01:15.497,5,391,155114,119808,76.0
2026-04-18T20:01:15.517,5,392,155114,119808,76.0
2026-04-18T20:01:15.537,5,393,155114,119808,76.0
2026-04-18T20:01:15.557,5,394,155114,119808,76.0
2026-04-18T20:01:15.577,5,395,155088,119816,76.0
2026-04-18T20:01:15.597,5,396,155088,119816,76.0
2026-04-18T20:01:15.617,5,397,155088,119816,76.0
2026-04-18T20:01:15.637,5,398,155088,119816,76.0
2026-04-18T20:01:15.657,5,399,155074,119809,76.0
2026-04-18T20:01:15.677,5,400,155074,119809,76.0
2026-04-18T20:01:15.697,5,401,155074,119809,76.0
2026-04-18T20:01:15.716,5,402,155074,119809,76.0
2026-04-18T20:01:15.737,5,403,155063,119805,76.0
2026-04-18T20:01:15.756,5,404,155063,119805,76.0
2026-04-18T20:01:15.777,5,405,155063,119805,76.0
2026-04-18T20:01:15.796,5,406,155063,119805,76.0
2026-04-18T20:01:15.816,5,407,155074,119813,76.0
2026-04-18T20:01:15.836,5,408,155074,119813,76.0
2026-04-18T20:01:15.856,5,409,155074,119813,76.0
2026-04-18T20:01:15.877,5,410,155074,119813,76.0
2026-04-18T20:01:15.896,5,411,155069,119815,76.0
2026-04-18T20:01:15.916,5,412,155069,119815,76.0
2026-04-18T20:01:15.936,5,413,155069,119815,76.0
2026-04-18T20:01:15.956,5,414,155069,119815,76.0
2026-04-18T20:01:15.976,5,415,155085,119834,76.0
2026-04-18T20:01:15.996,5,416,155085,119834,76.0
2026-04-18T20:01:16.016,5,417,155085,119834,76.0
2026-04-18T20:01:16.036,5,418,155085,119834,76.0
2026-04-18T20:01:16.056,5,419,155086,119827,76.0
2026-04-18T20:01:16.076,5,420,155086,119827,76.0
2026-04-18T20:01:16.096,5,421,155086,119827,76.0
2026-04-18T20:01:16.116,5,422,155086,119827,76.0
2026-04-18T20:01:16.136,5,423,155106,119834,76.0
2026-04-18T20:01:16.156,5,424,155106,119834,76.0
2026-04-18T20:01:16.176,5,425,155106,119834,76.0
2026-04-18T20:01:16.196,5,426,155106,119834,76.0
2026-04-18T20:01:16.216,5,427,155128,119860,76.0
2026-04-18T20:01:16.236,5,428,155128,119860,76.0
2026-04-18T20:01:16.256,5,429,155128,119860,76.0
2026-04-18T20:01:16.276,5,430,155128,119860,76.0
2026-04-18T20:01:16.296,5,431,155136,119864,76.0
2026-04-18T20:01:16.316,5,432,155136,119864,76.0
2026-04-18T20:01:16.336,5,433,155136,119864,76.0
2026-04-18T20:01:16.356,5,434,155136,119864,76.0
2026-04-18T20:01:16.376,5,435,155127,119858,76.0
2026-04-18T20:01:16.396,5,436,155127,119858,76.0
2026-04-18T20:01:16.416,5,437,155127,119858,76.0
2026-04-18T20:01:16.436,5,438,155127,119858,76.0
2026-04-18T20:01:16.456,5,439,155124,119857,76.0
2026-04-18T20:01:16.476,5,440,155124,119857,76.0
2026-04-18T20:01:16.496,5,441,155124,119857,76.0
2026-04-18T20:01:16.516,5,442,155124,119857,76.0
2026-04-18T20:01:16.536,5,443,155124,119866,76.0
2026-04-18T20:01:16.556,5,444,155124,119866,76.0
2026-04-18T20:01:16.576,5,445,155124,119866,76.0
2026-04-18T20:01:16.596,5,446,155124,119866,76.0
2026-04-18T20:01:16.616,5,447,155136,119867,76.0
2026-04-18T20:01:16.636,5,448,155136,119867,76.0
2026-04-18T20:01:16.656,5,449,155136,119867,76.0
2026-04-18T20:01:16.676,5,450,155136,119867,76.0
