timestamp,window,sample,ir_raw,red_raw,true_hr
2026-04-18T19:10:04.101,1,0,262143,226099,76
2026-04-18T19:10:04.111,1,1,262143,226099,76
2026-04-18T19:10:04.121,1,2,262143,226074,76
2026-04-18T19:10:04.131,1,3,262143,226074,76
2026-04-18T19:10:04.141,1,4,262143,226074,76
2026-04-18T19:10:04.151,1,5,262143,226074,76
2026-04-18T19:10:04.162,1,6,262143,226038,76
2026-04-18T19:10:04.171,1,7,262143,226038,76
2026-04-18T19:10:04.181,1,8,262143,226038,76
2026-04-18T19:10:04.191,1,9,262143,226038,76
2026-04-18T19:10:04.201,1,10,262143,225885,76
2026-04-18T19:10:04.211,1,11,262143,225885,76
2026-04-18T19:10:04.221,1,12,262143,225885,76
2026-04-18T19:10:04.231,1,13,262143,225885,76
2026-04-18T19:10:04.241,1,14,262143,225875,76
2026-04-18T19:10:04.251,1,15,262143,225875,76
2026-04-18T19:10:04.261,1,16,262143,225875,76
2026-04-18T19:10:04.271,1,17,262143,225875,76
2026-04-18T19:10:04.281,1,18,262143,225886,76
2026-04-18T19:10:04.291,1,19,262143,225886,76
2026-04-18T19:10:04.301,1,20,262143,225886,76
2026-04-18T19:10:04.312,1,21,262143,225886,76
2026-04-18T19:10:04.321,1,22,262143,225647,76
2026-04-18T19:10:04.331,1,23,262143,225647,76
2026-04-18T19:10:04.341,1,24,262143,225647,76
2026-04-18T19:10:04.351,1,25,262143,225647,76
2026-04-18T19:10:04.361,1,26,262143,225674,76
2026-04-18T19:10:04.371,1,27,262143,225674,76
2026-04-18T19:10:04.381,1,28,262143,225674,76
2026-04-18T19:10:04.391,1,29,262143,225674,76
2026-04-18T19:10:04.401,1,30,262143,225750,76
2026-04-18T19:10:04.411,1,31,262143,225750,76
2026-04-18T19:10:04.421,1,32,262143,225750,76
2026-04-18T19:10:04.431,1,33,262143,225750,76
2026-04-18T19:10:04.441,1,34,262143,225468,76
2026-04-18T19:10:04.451,1,35,262143,225468,76
2026-04-18T19:10:04.461,1,36,262143,225468,76
2026-04-18T19:10:04.471,1,37,262143,225468,76
2026-04-18T19:10:04.481,1,38,262143,225238,76
2026-04-18T19:10:04.491,1,39,262143,225238,76
2026-04-18T19:10:04.501,1,40,262143,225238,76
2026-04-18T19:10:04.511,1,41,262143,225238,76
2026-04-18T19:10:04.521,1,42,262143,225317,76
2026-04-18T19:10:04.531,1,43,262143,225317,76
2026-04-18T19:10:04.541,1,44,262143,225317,76
2026-04-18T19:10:04.551,1,45,262143,225317,76
2026-04-18T19:10:04.561,1,46,262143,225144,76
2026-04-18T19:10:04.571,1,47,262143,225144,76
2026-04-18T19:10:04.581,1,48,262143,225144,76
2026-04-18T19:10:04.591,1,49,262143,225144,76
2026-04-18T19:10:04.601,1,50,262143,225163,76
2026-04-18T19:10:04.611,1,51,262143,225163,76
2026-04-18T19:10:04.621,1,52,262143,225163,76
2026-04-18T19:10:04.631,1,53,262143,225163,76
2026-04-18T19:10:04.641,1,54,262143,225445,76
2026-04-18T19:10:04.651,1,55,262143,225445,76
2026-04-18T19:10:04.661,1,56,262143,225445,76
2026-04-18T19:10:04.671,1,57,262143,225445,76
2026-04-18T19:10:04.681,1,58,262143,225977,76
2026-04-18T19:10:04.691,1,59,262143,225977,76
2026-04-18T19:10:04.701,1,60,262143,225977,76
2026-04-18T19:10:04.711,1,61,262143,225977,76
2026-04-18T19:10:04.721,1,62,262143,225547,76
2026-04-18T19:10:04.731,1,63,262143,225547,76
2026-04-18T19:10:04.741,1,64,262143,225547,76
2026-04-18T19:10:04.751,1,65,262143,225547,76
2026-04-18T19:10:04.761,1,66,262143,225855,76
2026-04-18T19:10:04.771,1,67,262143,225855,76
2026-04-18T19:10:04.781,1,68,262143,225855,76
2026-04-18T19:10:04.791,1,69,262143,225855,76
2026-04-18T19:10:04.801,1,70,262143,226037,76
2026-04-18T19:10:04.811,1,71,262143,226037,76
2026-04-18T19:10:04.821,1,72,262143,226037,76
2026-04-18T19:10:04.831,1,73,262143,226037,76
2026-04-18T19:10:04.840,1,74,262143,225920,76
2026-04-18T19:10:04.850,1,75,262143,225920,76
2026-04-18T19:10:04.860,1,76,262143,225920,76
2026-04-18T19:10:04.870,1,77,262143,225920,76
2026-04-18T19:10:04.881,1,78,262143,225826,76
2026-04-18T19:10:04.890,1,79,262143,225826,76
2026-04-18T19:10:04.900,1,80,262143,225826,76
2026-04-18T19:10:04.910,1,81,262143,225826,76
2026-04-18T19:10:04.920,1,82,262143,225631,76
2026-04-18T19:10:04.930,1,83,262143,225631,76
2026-04-18T19:10:04.940,1,84,262143,225631,76
2026-04-18T19:10:04.950,1,85,262143,225631,76
2026-04-18T19:10:04.960,1,86,262143,225053,76
2026-04-18T19:10:04.970,1,87,262143,225053,76
2026-04-18T19:10:04.980,1,88,262143,225053,76
2026-04-18T19:10:04.991,1,89,262143,225053,76
2026-04-18T19:10:05.000,1,90,262143,224397,76
2026-04-18T19:10:05.011,1,91,262143,224397,76
2026-04-18T19:10:05.020,1,92,262143,224397,76
2026-04-18T19:10:05.030,1,93,262143,224397,76
2026-04-18T19:10:05.040,1,94,262143,223953,76
2026-04-18T19:10:05.050,1,95,262143,223953,76
2026-04-18T19:10:05.060,1,96,262143,223953,76
2026-04-18T19:10:05.070,1,97,262143,223953,76
2026-04-18T19:10:05.080,1,98,262143,223374,76
2026-04-18T19:10:05.090,1,99,262143,223374,76
2026-04-18T19:10:05.100,1,100,262143,223374,76
2026-04-18T19:10:05.110,1,101,262143,223374,76
2026-04-18T19:10:05.120,1,102,262143,222617,76
2026-04-18T19:10:05.130,1,103,262143,222617,76
2026-04-18T19:10:05.140,1,104,262143,222617,76
2026-04-18T19:10:05.150,1,105,262143,222617,76
2026-04-18T19:10:05.160,1,106,262143,222016,76
2026-04-18T19:10:05.170,1,107,262143,222016,76
2026-04-18T19:10:05.180,1,108,262143,222016,76
2026-04-18T19:10:05.190,1,109,262143,222016,76
2026-04-18T19:10:05.200,1,110,262143,221271,76
2026-04-18T19:10:05.210,1,111,262143,221271,76
2026-04-18T19:10:05.220,1,112,262143,221271,76
2026-04-18T19:10:05.230,1,113,262143,221271,76
2026-04-18T19:10:05.240,1,114,262143,220386,76
2026-04-18T19:10:05.250,1,115,262143,220386,76
2026-04-18T19:10:05.260,1,116,262143,220386,76
2026-04-18T19:10:05.270,1,117,262143,220386,76
2026-04-18T19:10:05.280,1,118,261946,219809,76
2026-04-18T19:10:05.290,1,119,261946,219809,76
2026-04-18T19:10:05.300,1,120,261946,219809,76
2026-04-18T19:10:05.310,1,121,261946,219809,76
2026-04-18T19:10:05.320,1,122,261651,219299,76
2026-04-18T19:10:05.329,1,123,261651,219299,76
2026-04-18T19:10:05.340,1,124,261651,219299,76
2026-04-18T19:10:05.350,1,125,261651,219299,76
2026-04-18T19:10:05.360,1,126,261390,218712,76
2026-04-18T19:10:05.370,1,127,261390,218712,76
2026-04-18T19:10:05.380,1,128,261390,218712,76
2026-04-18T19:10:05.390,1,129,261390,218712,76
2026-04-18T19:10:05.400,1,130,261035,218135,76
2026-04-18T19:10:05.410,1,131,261035,218135,76
2026-04-18T19:10:05.420,1,132,261035,218135,76
2026-04-18T19:10:05.430,1,133,261035,218135,76
2026-04-18T19:10:05.440,1,134,261144,218287,76
2026-04-18T19:10:05.450,1,135,261144,218287,76
2026-04-18T19:10:05.460,1,136,261144,218287,76
2026-04-18T19:10:05.470,1,137,261144,218287,76
2026-04-18T19:10:05.480,1,138,260938,218027,76
2026-04-18T19:10:05.490,1,139,260938,218027,76
2026-04-18T19:10:05.500,1,140,260938,218027,76
2026-04-18T19:10:05.509,1,141,260938,218027,76
2026-04-18T19:10:05.519,1,142,260840,217861,76
2026-04-18T19:10:05.529,1,143,260840,217861,76
2026-04-18T19:10:05.539,1,144,260840,217861,76
2026-04-18T19:10:05.550,1,145,260840,217861,76
2026-04-18T19:10:05.560,1,146,260910,217976,76
2026-04-18T19:10:05.570,1,147,260910,217976,76
2026-04-18T19:10:05.580,1,148,260910,217976,76
2026-04-18T19:10:05.590,1,149,260910,217976,76
2026-04-18T19:10:05.600,1,150,260839,217827,76
2026-04-18T19:10:05.610,1,151,260839,217827,76
2026-04-18T19:10:05.619,1,152,260839,217827,76
2026-04-18T19:10:05.630,1,153,260839,217827,76
2026-04-18T19:10:05.640,1,154,260908,217964,76
2026-04-18T19:10:05.650,1,155,260908,217964,76
2026-04-18T19:10:05.660,1,156,260908,217964,76
2026-04-18T19:10:05.670,1,157,260908,217964,76
2026-04-18T19:10:05.679,1,158,260731,217720,76
2026-04-18T19:10:05.690,1,159,260731,217720,76
2026-04-18T19:10:05.700,1,160,260731,217720,76
2026-04-18T19:10:05.710,1,161,260731,217720,76
2026-04-18T19:10:05.720,1,162,260917,218124,76
2026-04-18T19:10:05.729,1,163,260917,218124,76
2026-04-18T19:10:05.740,1,164,260917,218124,76
2026-04-18T19:10:05.749,1,165,260917,218124,76
2026-04-18T19:10:05.760,1,166,260937,218226,76
2026-04-18T19:10:05.770,1,167,260937,218226,76
2026-04-18T19:10:05.780,1,168,260937,218226,76
2026-04-18T19:10:05.790,1,169,260937,218226,76
2026-04-18T19:10:05.799,1,170,261002,218243,76
2026-04-18T19:10:05.809,1,171,261002,218243,76
2026-04-18T19:10:05.819,1,172,261002,218243,76
2026-04-18T19:10:05.830,1,173,261002,218243,76
2026-04-18T19:10:05.839,1,174,261068,218405,76
2026-04-18T19:10:05.850,1,175,261068,218405,76
2026-04-18T19:10:05.860,1,176,261068,218405,76
2026-04-18T19:10:05.870,1,177,261068,218405,76
2026-04-18T19:10:05.880,1,178,261081,218418,76
2026-04-18T19:10:05.890,1,179,261081,218418,76
2026-04-18T19:10:05.899,1,180,261081,218418,76
2026-04-18T19:10:05.909,1,181,261081,218418,76
2026-04-18T19:10:05.919,1,182,261158,218505,76
2026-04-18T19:10:05.930,1,183,261158,218505,76
2026-04-18T19:10:05.939,1,184,261158,218505,76
2026-04-18T19:10:05.949,1,185,261158,218505,76
2026-04-18T19:10:05.960,1,186,261150,218491,76
2026-04-18T19:10:05.969,1,187,261150,218491,76
2026-04-18T19:10:05.979,1,188,261150,218491,76
2026-04-18T19:10:05.989,1,189,261150,218491,76
2026-04-18T19:10:05.999,1,190,261162,218453,76
2026-04-18T19:10:06.010,1,191,261162,218453,76
2026-04-18T19:10:06.019,1,192,261162,218453,76
2026-04-18T19:10:06.029,1,193,261162,218453,76
2026-04-18T19:10:06.040,1,194,261165,218483,76
2026-04-18T19:10:06.049,1,195,261165,218483,76
2026-04-18T19:10:06.059,1,196,261165,218483,76
2026-04-18T19:10:06.069,1,197,261165,218483,76
2026-04-18T19:10:06.079,1,198,261236,218526,76
2026-04-18T19:10:06.089,1,199,261236,218526,76
2026-04-18T19:10:06.099,1,200,261236,218526,76
2026-04-18T19:10:06.109,1,201,261236,218526,76
2026-04-18T19:10:06.119,1,202,261294,218519,76
2026-04-18T19:10:06.129,1,203,261294,218519,76
2026-04-18T19:10:06.139,1,204,261294,218519,76
2026-04-18T19:10:06.149,1,205,261294,218519,76
2026-04-18T19:10:06.159,1,206,261335,218471,76
2026-04-18T19:10:06.169,1,207,261335,218471,76
2026-04-18T19:10:06.179,1,208,261335,218471,76
2026-04-18T19:10:06.189,1,209,261335,218471,76
2026-04-18T19:10:06.199,1,210,261446,218653,76
2026-04-18T19:10:06.209,1,211,261446,218653,76
2026-04-18T19:10:06.219,1,212,261446,218653,76
2026-04-18T19:10:06.229,1,213,261446,218653,76
2026-04-18T19:10:06.239,1,214,261827,219386,76
2026-04-18T19:10:06.249,1,215,261827,219386,76
2026-04-18T19:10:06.259,1,216,261827,219386,76
2026-04-18T19:10:06.269,1,217,261827,219386,76
2026-04-18T19:10:06.279,1,218,262088,219707,76
2026-04-18T19:10:06.289,1,219,262088,219707,76
2026-04-18T19:10:06.299,1,220,262088,219707,76
2026-04-18T19:10:06.309,1,221,262088,219707,76
2026-04-18T19:10:06.319,1,222,262143,220467,76
2026-04-18T19:10:06.329,1,223,262143,220467,76
2026-04-18T19:10:06.339,1,224,262143,220467,76
2026-04-18T19:10:06.349,1,225,262143,220467,76
2026-04-18T19:10:06.359,1,226,262143,220939,76
2026-04-18T19:10:06.369,1,227,262143,220939,76
2026-04-18T19:10:06.379,1,228,262143,220939,76
2026-04-18T19:10:06.389,1,229,262143,220939,76
2026-04-18T19:10:06.399,1,230,262143,221081,76
2026-04-18T19:10:06.409,1,231,262143,221081,76
2026-04-18T19:10:06.419,1,232,262143,221081,76
2026-04-18T19:10:06.429,1,233,262143,221081,76
2026-04-18T19:10:06.438,1,234,262143,221352,76
2026-04-18T19:10:06.449,1,235,262143,221352,76
2026-04-18T19:10:06.458,1,236,262143,221352,76
2026-04-18T19:10:06.468,1,237,262143,221352,76
2026-04-18T19:10:06.478,1,238,262143,221583,76
2026-04-18T19:10:06.488,1,239,262143,221583,76
2026-04-18T19:10:06.498,1,240,262143,221583,76
2026-04-18T19:10:06.508,1,241,262143,221583,76
2026-04-18T19:10:06.518,1,242,262143,221845,76
2026-04-18T19:10:06.528,1,243,262143,221845,76
2026-04-18T19:10:06.538,1,244,262143,221845,76
2026-04-18T19:10:06.548,1,245,262143,221845,76
2026-04-18T19:10:06.559,1,246,262143,221824,76
2026-04-18T19:10:06.568,1,247,262143,221824,76
2026-04-18T19:10:06.579,1,248,262143,221824,76
2026-04-18T19:10:06.588,1,249,262143,221824,76
2026-04-18T19:10:06.599,1,250,262143,222060,76
2026-04-18T19:10:06.609,1,251,262143,222060,76
2026-04-18T19:10:06.618,1,252,262143,222060,76
2026-04-18T19:10:06.629,1,253,262143,222060,76
2026-04-18T19:10:06.639,1,254,262143,221901,76
2026-04-18T19:10:06.648,1,255,262143,221901,76
2026-04-18T19:10:06.658,1,256,262143,221901,76
2026-04-18T19:10:06.668,1,257,262143,221901,76
2026-04-18T19:10:06.679,1,258,262143,221811,76
2026-04-18T19:10:06.689,1,259,262143,221811,76
2026-04-18T19:10:06.698,1,260,262143,221811,76
2026-04-18T19:10:06.708,1,261,262143,221811,76
2026-04-18T19:10:06.718,1,262,262143,221900,76
2026-04-18T19:10:06.729,1,263,262143,221900,76
2026-04-18T19:10:06.739,1,264,262143,221900,76
2026-04-18T19:10:06.748,1,265,262143,221900,76
2026-04-18T19:10:06.759,1,266,262143,221813,76
2026-04-18T19:10:06.768,1,267,262143,221813,76
2026-04-18T19:10:06.778,1,268,262143,221813,76
2026-04-18T19:10:06.789,1,269,262143,221813,76
2026-04-18T19:10:06.798,1,270,262143,221642,76
2026-04-18T19:10:06.808,1,271,262143,221642,76
2026-04-18T19:10:06.818,1,272,262143,221642,76
2026-04-18T19:10:06.828,1,273,262143,221642,76
2026-04-18T19:10:06.838,1,274,262143,221570,76
2026-04-18T19:10:06.849,1,275,262143,221570,76
2026-04-18T19:10:06.859,1,276,262143,221570,76
2026-04-18T19:10:06.869,1,277,262143,221570,76
2026-04-18T19:10:06.879,1,278,262143,221612,76
2026-04-18T19:10:06.888,1,279,262143,221612,76
2026-04-18T19:10:06.898,1,280,262143,221612,76
2026-04-18T19:10:06.908,1,281,262143,221612,76
2026-04-18T19:10:06.918,1,282,262143,221573,76
2026-04-18T19:10:06.928,1,283,262143,221573,76
2026-04-18T19:10:06.938,1,284,262143,221573,76
2026-04-18T19:10:06.948,1,285,262143,221573,76
2026-04-18T19:10:06.958,1,286,262143,221472,76
2026-04-18T19:10:06.969,1,287,262143,221472,76
2026-04-18T19:10:06.978,1,288,262143,221472,76
2026-04-18T19:10:06.988,1,289,262143,221472,76
2026-04-18T19:10:06.998,1,290,262143,221761,76
2026-04-18T19:10:07.008,1,291,262143,221761,76
2026-04-18T19:10:07.018,1,292,262143,221761,76
2026-04-18T19:10:07.028,1,293,262143,221761,76
2026-04-18T19:10:07.038,1,294,262143,222345,76
2026-04-18T19:10:07.047,1,295,262143,222345,76
2026-04-18T19:10:07.058,1,296,262143,222345,76
2026-04-18T19:10:07.067,1,297,262143,222345,76
2026-04-18T19:10:07.078,1,298,262143,222351,76
2026-04-18T19:10:07.088,1,299,262143,222351,76
2026-04-18T19:10:07.098,1,300,262143,222351,76
2026-04-18T19:10:07.107,1,301,262143,222351,76
2026-04-18T19:10:07.117,1,302,262143,222613,76
2026-04-18T19:10:07.127,1,303,262143,222613,76
2026-04-18T19:10:07.138,1,304,262143,222613,76
2026-04-18T19:10:07.147,1,305,262143,222613,76
2026-04-18T19:10:07.158,1,306,262143,222777,76
2026-04-18T19:10:07.168,1,307,262143,222777,76
2026-04-18T19:10:07.178,1,308,262143,222777,76
2026-04-18T19:10:07.188,1,309,262143,222777,76
2026-04-18T19:10:07.198,1,310,262143,222715,76
2026-04-18T19:10:07.208,1,311,262143,222715,76
2026-04-18T19:10:07.218,1,312,262143,222715,76
2026-04-18T19:10:07.228,1,313,262143,222715,76
2026-04-18T19:10:07.238,1,314,262143,222813,76
2026-04-18T19:10:07.248,1,315,262143,222813,76
2026-04-18T19:10:07.258,1,316,262143,222813,76
2026-04-18T19:10:07.268,1,317,262143,222813,76
2026-04-18T19:10:07.278,1,318,262143,223011,76
2026-04-18T19:10:07.288,1,319,262143,223011,76
2026-04-18T19:10:07.298,1,320,262143,223011,76
2026-04-18T19:10:07.307,1,321,262143,223011,76
2026-04-18T19:10:07.318,1,322,262143,223027,76
2026-04-18T19:10:07.327,1,323,262143,223027,76
2026-04-18T19:10:07.337,1,324,262143,223027,76
2026-04-18T19:10:07.347,1,325,262143,223027,76
2026-04-18T19:10:07.357,1,326,262143,222995,76
2026-04-18T19:10:07.368,1,327,262143,222995,76
2026-04-18T19:10:07.378,1,328,262143,222995,76
2026-04-18T19:10:07.388,1,329,262143,222995,76
2026-04-18T19:10:07.398,1,330,262143,223005,76
2026-04-18T19:10:07.408,1,331,262143,223005,76
2026-04-18T19:10:07.418,1,332,262143,223005,76
2026-04-18T19:10:07.428,1,333,262143,223005,76
2026-04-18T19:10:07.437,1,334,262143,222981,76
2026-04-18T19:10:07.448,1,335,262143,222981,76
2026-04-18T19:10:07.458,1,336,262143,222981,76
2026-04-18T19:10:07.467,1,337,262143,222981,76
2026-04-18T19:10:07.478,1,338,262143,222759,76
2026-04-18T19:10:07.488,1,339,262143,222759,76
2026-04-18T19:10:07.498,1,340,262143,222759,76
2026-04-18T19:10:07.507,1,341,262143,222759,76
2026-04-18T19:10:07.517,1,342,262143,222770,76
2026-04-18T19:10:07.527,1,343,262143,222770,76
2026-04-18T19:10:07.537,1,344,262143,222770,76
2026-04-18T19:10:07.547,1,345,262143,222770,76
2026-04-18T19:10:07.557,1,346,262143,222823,76
2026-04-18T19:10:07.567,1,347,262143,222823,76
2026-04-18T19:10:07.577,1,348,262143,222823,76
2026-04-18T19:10:07.587,1,349,262143,222823,76
2026-04-18T19:10:07.597,1,350,262143,222766,76
2026-04-18T19:10:07.607,1,351,262143,222766,76
2026-04-18T19:10:07.617,1,352,262143,222766,76
2026-04-18T19:10:07.627,1,353,262143,222766,76
2026-04-18T19:10:07.637,1,354,262143,222731,76
2026-04-18T19:10:07.647,1,355,262143,222731,76
2026-04-18T19:10:07.657,1,356,262143,222731,76
2026-04-18T19:10:07.667,1,357,262143,222731,76
2026-04-18T19:10:07.677,1,358,262143,222636,76
2026-04-18T19:10:07.687,1,359,262143,222636,76
2026-04-18T19:10:07.697,1,360,262143,222636,76
2026-04-18T19:10:07.707,1,361,262143,222636,76
2026-04-18T19:10:07.717,1,362,262143,222557,76
2026-04-18T19:10:07.727,1,363,262143,222557,76
2026-04-18T19:10:07.737,1,364,262143,222557,76
2026-04-18T19:10:07.747,1,365,262143,222557,76
2026-04-18T19:10:07.757,1,366,262143,222508,76
2026-04-18T19:10:07.767,1,367,262143,222508,76
2026-04-18T19:10:07.777,1,368,262143,222508,76
2026-04-18T19:10:07.787,1,369,262143,222508,76
2026-04-18T19:10:07.797,1,370,262143,222703,76
2026-04-18T19:10:07.807,1,371,262143,222703,76
2026-04-18T19:10:07.817,1,372,262143,222703,76
2026-04-18T19:10:07.827,1,373,262143,222703,76
2026-04-18T19:10:07.837,1,374,262143,223469,76
2026-04-18T19:10:07.847,1,375,262143,223469,76
2026-04-18T19:10:07.857,1,376,262143,223469,76
2026-04-18T19:10:07.867,1,377,262143,223469,76
2026-04-18T19:10:07.877,1,378,262143,223462,76
2026-04-18T19:10:07.887,1,379,262143,223462,76
2026-04-18T19:10:07.897,1,380,262143,223462,76
2026-04-18T19:10:07.907,1,381,262143,223462,76
2026-04-18T19:10:07.917,1,382,262143,223755,76
2026-04-18T19:10:07.927,1,383,262143,223755,76
2026-04-18T19:10:07.937,1,384,262143,223755,76
2026-04-18T19:10:07.947,1,385,262143,223755,76
2026-04-18T19:10:07.957,1,386,262143,223991,76
2026-04-18T19:10:07.967,1,387,262143,223991,76
2026-04-18T19:10:07.977,1,388,262143,223991,76
2026-04-18T19:10:07.987,1,389,262143,223991,76
2026-04-18T19:10:07.997,1,390,262143,223991,76
2026-04-18T19:10:08.007,1,391,262143,223991,76
2026-04-18T19:10:08.017,1,392,262143,223991,76
2026-04-18T19:10:08.028,1,393,262143,223991,76
2026-04-18T19:10:08.037,1,394,262143,223490,76
2026-04-18T19:10:08.047,1,395,262143,223490,76
2026-04-18T19:10:08.057,1,396,262143,223490,76
2026-04-18T19:10:08.067,1,397,262143,223490,76
2026-04-18T19:10:08.077,1,398,262143,222630,76
2026-04-18T19:10:08.087,1,399,262143,222630,76
2026-04-18T19:10:08.097,1,400,262143,222630,76
2026-04-18T19:10:08.107,1,401,262143,222630,76
2026-04-18T19:10:08.117,1,402,262143,222426,76
2026-04-18T19:10:08.127,1,403,262143,222426,76
2026-04-18T19:10:08.137,1,404,262143,222426,76
2026-04-18T19:10:08.147,1,405,262143,222426,76
2026-04-18T19:10:08.157,1,406,262143,222051,76
2026-04-18T19:10:08.167,1,407,262143,222051,76
2026-04-18T19:10:08.177,1,408,262143,222051,76
2026-04-18T19:10:08.187,1,409,262143,222051,76
2026-04-18T19:10:08.197,1,410,262143,220852,76
2026-04-18T19:10:08.206,1,411,262143,220852,76
2026-04-18T19:10:08.216,1,412,262143,220852,76
2026-04-18T19:10:08.226,1,413,262143,220852,76
2026-04-18T19:10:08.237,1,414,262100,219206,76
2026-04-18T19:10:08.246,1,415,262100,219206,76
2026-04-18T19:10:08.256,1,416,262100,219206,76
2026-04-18T19:10:08.266,1,417,262100,219206,76
2026-04-18T19:10:08.277,1,418,260702,216777,76
2026-04-18T19:10:08.287,1,419,260702,216777,76
2026-04-18T19:10:08.297,1,420,260702,216777,76
2026-04-18T19:10:08.306,1,421,260702,216777,76
2026-04-18T19:10:08.316,1,422,259550,214841,76
2026-04-18T19:10:08.326,1,423,259550,214841,76
2026-04-18T19:10:08.336,1,424,259550,214841,76
2026-04-18T19:10:08.347,1,425,259550,214841,76
2026-04-18T19:10:08.357,1,426,259381,214605,76
2026-04-18T19:10:08.367,1,427,259381,214605,76
2026-04-18T19:10:08.377,1,428,259381,214605,76
2026-04-18T19:10:08.387,1,429,259381,214605,76
2026-04-18T19:10:08.396,1,430,259287,214540,76
2026-04-18T19:10:08.407,1,431,259287,214540,76
2026-04-18T19:10:08.416,1,432,259287,214540,76
2026-04-18T19:10:08.427,1,433,259287,214540,76
2026-04-18T19:10:08.437,1,434,258929,213968,76
2026-04-18T19:10:08.446,1,435,258929,213968,76
2026-04-18T19:10:08.457,1,436,258929,213968,76
2026-04-18T19:10:08.467,1,437,258929,213968,76
2026-04-18T19:10:08.477,1,438,258561,213475,76
2026-04-18T19:10:08.487,1,439,258561,213475,76
2026-04-18T19:10:08.497,1,440,258561,213475,76
2026-04-18T19:10:08.506,1,441,258561,213475,76
2026-04-18T19:10:08.516,1,442,257703,212156,76
2026-04-18T19:10:08.526,1,443,257703,212156,76
2026-04-18T19:10:08.536,1,444,257703,212156,76
2026-04-18T19:10:08.546,1,445,257703,212156,76
2026-04-18T19:10:08.556,1,446,256761,210693,76
2026-04-18T19:10:08.566,1,447,256761,210693,76
2026-04-18T19:10:08.576,1,448,256761,210693,76
2026-04-18T19:10:08.586,1,449,256761,210693,76
2026-04-18T19:10:08.596,1,450,256090,209492,76
2026-04-18T19:10:08.606,1,451,256090,209492,76
2026-04-18T19:10:08.616,1,452,256090,209492,76
2026-04-18T19:10:08.626,1,453,256090,209492,76
2026-04-18T19:10:08.636,1,454,255498,208394,76
2026-04-18T19:10:08.646,1,455,255498,208394,76
2026-04-18T19:10:08.656,1,456,255498,208394,76
2026-04-18T19:10:08.666,1,457,255498,208394,76
2026-04-18T19:10:08.676,1,458,255041,207648,76
2026-04-18T19:10:08.686,1,459,255041,207648,76
2026-04-18T19:10:08.696,1,460,255041,207648,76
2026-04-18T19:10:08.706,1,461,255041,207648,76
2026-04-18T19:10:08.716,1,462,254538,206908,76
2026-04-18T19:10:08.727,1,463,254538,206908,76
2026-04-18T19:10:08.736,1,464,254538,206908,76
2026-04-18T19:10:08.746,1,465,254538,206908,76
2026-04-18T19:10:08.756,1,466,254577,207085,76
2026-04-18T19:10:08.766,1,467,254577,207085,76
2026-04-18T19:10:08.776,1,468,254577,207085,76
2026-04-18T19:10:08.786,1,469,254577,207085,76
2026-04-18T19:10:08.796,1,470,254583,207199,76
2026-04-18T19:10:08.805,1,471,254583,207199,76
2026-04-18T19:10:08.816,1,472,254583,207199,76
2026-04-18T19:10:08.826,1,473,254583,207199,76
2026-04-18T19:10:08.835,1,474,254336,207077,76
2026-04-18T19:10:08.846,1,475,254336,207077,76
2026-04-18T19:10:08.855,1,476,254336,207077,76
2026-04-18T19:10:08.866,1,477,254336,207077,76
2026-04-18T19:10:08.875,1,478,254378,207372,76
2026-04-18T19:10:08.886,1,479,254378,207372,76
2026-04-18T19:10:08.895,1,480,254378,207372,76
2026-04-18T19:10:08.906,1,481,254378,207372,76
2026-04-18T19:10:08.915,1,482,254170,207290,76
2026-04-18T19:10:08.926,1,483,254170,207290,76
2026-04-18T19:10:08.936,1,484,254170,207290,76
2026-04-18T19:10:08.946,1,485,254170,207290,76
2026-04-18T19:10:08.955,1,486,253934,207036,76
2026-04-18T19:10:08.966,1,487,253934,207036,76
2026-04-18T19:10:08.976,1,488,253934,207036,76
2026-04-18T19:10:08.986,1,489,253934,207036,76
2026-04-18T19:10:08.996,1,490,253561,206483,76
2026-04-18T19:10:09.005,1,491,253561,206483,76
2026-04-18T19:10:09.015,1,492,253561,206483,76
2026-04-18T19:10:09.026,1,493,253561,206483,76
2026-04-18T19:10:09.035,1,494,253186,205922,76
2026-04-18T19:10:09.045,1,495,253186,205922,76
2026-04-18T19:10:09.055,1,496,253186,205922,76
2026-04-18T19:10:09.065,1,497,253186,205922,76
2026-04-18T19:10:09.075,1,498,253046,205714,76
2026-04-18T19:10:09.085,1,499,253046,205714,76
2026-04-18T19:10:09.095,1,500,253046,205714,76
2026-04-18T19:10:09.105,1,501,253046,205714,76
2026-04-18T19:10:09.115,1,502,252686,205297,76
2026-04-18T19:10:09.126,1,503,252686,205297,76
2026-04-18T19:10:09.135,1,504,252686,205297,76
2026-04-18T19:10:09.145,1,505,252686,205297,76
2026-04-18T19:10:09.155,1,506,252592,205172,76
2026-04-18T19:10:09.165,1,507,252592,205172,76
2026-04-18T19:10:09.175,1,508,252592,205172,76
2026-04-18T19:10:09.185,1,509,252592,205172,76
2026-04-18T19:10:09.196,1,510,252526,205061,76
2026-04-18T19:10:09.205,1,511,252526,205061,76
2026-04-18T19:10:09.216,1,512,252526,205061,76
2026-04-18T19:10:09.225,1,513,252526,205061,76
2026-04-18T19:10:09.235,1,514,252364,204819,76
2026-04-18T19:10:09.245,1,515,252364,204819,76
2026-04-18T19:10:09.255,1,516,252364,204819,76
2026-04-18T19:10:09.265,1,517,252364,204819,76
2026-04-18T19:10:09.275,1,518,252328,204663,76
2026-04-18T19:10:09.285,1,519,252328,204663,76
2026-04-18T19:10:09.295,1,520,252328,204663,76
2026-04-18T19:10:09.305,1,521,252328,204663,76
2026-04-18T19:10:09.315,1,522,252325,204567,76
2026-04-18T19:10:09.325,1,523,252325,204567,76
2026-04-18T19:10:09.335,1,524,252325,204567,76
2026-04-18T19:10:09.345,1,525,252325,204567,76
2026-04-18T19:10:09.355,1,526,252345,204603,76
2026-04-18T19:10:09.365,1,527,252345,204603,76
2026-04-18T19:10:09.375,1,528,252345,204603,76
2026-04-18T19:10:09.385,1,529,252345,204603,76
2026-04-18T19:10:09.395,1,530,252275,204558,76
2026-04-18T19:10:09.405,1,531,252275,204558,76
2026-04-18T19:10:09.415,1,532,252275,204558,76
2026-04-18T19:10:09.425,1,533,252275,204558,76
2026-04-18T19:10:09.435,1,534,252321,204588,76
2026-04-18T19:10:09.445,1,535,252321,204588,76
2026-04-18T19:10:09.455,1,536,252321,204588,76
2026-04-18T19:10:09.465,1,537,252321,204588,76
2026-04-18T19:10:09.475,1,538,252247,204475,76
2026-04-18T19:10:09.485,1,539,252247,204475,76
2026-04-18T19:10:09.495,1,540,252247,204475,76
2026-04-18T19:10:09.505,1,541,252247,204475,76
2026-04-18T19:10:09.515,1,542,252262,204562,76
2026-04-18T19:10:09.525,1,543,252262,204562,76
2026-04-18T19:10:09.535,1,544,252262,204562,76
2026-04-18T19:10:09.545,1,545,252262,204562,76
2026-04-18T19:10:09.555,1,546,252312,204724,76
2026-04-18T19:10:09.565,1,547,252312,204724,76
2026-04-18T19:10:09.575,1,548,252312,204724,76
2026-04-18T19:10:09.585,1,549,252312,204724,76
2026-04-18T19:10:09.595,1,550,252351,204900,76
2026-04-18T19:10:09.605,1,551,252351,204900,76
2026-04-18T19:10:09.614,1,552,252351,204900,76
2026-04-18T19:10:09.624,1,553,252351,204900,76
2026-04-18T19:10:09.635,1,554,252420,205214,76
2026-04-18T19:10:09.645,1,555,252420,205214,76
2026-04-18T19:10:09.655,1,556,252420,205214,76
2026-04-18T19:10:09.665,1,557,252420,205214,76
2026-04-18T19:10:09.675,1,558,252153,205202,76
2026-04-18T19:10:09.685,1,559,252153,205202,76
2026-04-18T19:10:09.695,1,560,252153,205202,76
2026-04-18T19:10:09.705,1,561,252153,205202,76
2026-04-18T19:10:09.715,1,562,251946,205432,76
2026-04-18T19:10:09.725,1,563,251946,205432,76
2026-04-18T19:10:09.735,1,564,251946,205432,76
2026-04-18T19:10:09.745,1,565,251946,205432,76
2026-04-18T19:10:09.755,1,566,251755,205567,76
2026-04-18T19:10:09.765,1,567,251755,205567,76
2026-04-18T19:10:09.775,1,568,251755,205567,76
2026-04-18T19:10:09.785,1,569,251755,205567,76
2026-04-18T19:10:09.795,1,570,251429,205520,76
2026-04-18T19:10:09.805,1,571,251429,205520,76
2026-04-18T19:10:09.815,1,572,251429,205520,76
2026-04-18T19:10:09.825,1,573,251429,205520,76
2026-04-18T19:10:09.835,1,574,251107,205402,76
2026-04-18T19:10:09.845,1,575,251107,205402,76
2026-04-18T19:10:09.855,1,576,251107,205402,76
2026-04-18T19:10:09.865,1,577,251107,205402,76
2026-04-18T19:10:09.874,1,578,250996,205370,76
2026-04-18T19:10:09.885,1,579,250996,205370,76
2026-04-18T19:10:09.895,1,580,250996,205370,76
2026-04-18T19:10:09.905,1,581,250996,205370,76
2026-04-18T19:10:09.915,1,582,250864,205342,76
2026-04-18T19:10:09.925,1,583,250864,205342,76
2026-04-18T19:10:09.935,1,584,250864,205342,76
2026-04-18T19:10:09.945,1,585,250864,205342,76
2026-04-18T19:10:09.954,1,586,250297,204646,76
2026-04-18T19:10:09.965,1,587,250297,204646,76
2026-04-18T19:10:09.974,1,588,250297,204646,76
2026-04-18T19:10:09.985,1,589,250297,204646,76
2026-04-18T19:10:09.995,1,590,249912,204104,76
2026-04-18T19:10:10.005,1,591,249912,204104,76
2026-04-18T19:10:10.015,1,592,249912,204104,76
2026-04-18T19:10:10.025,1,593,249912,204104,76
2026-04-18T19:10:10.034,1,594,249310,203407,76
2026-04-18T19:10:10.044,1,595,249310,203407,76
2026-04-18T19:10:10.054,1,596,249310,203407,76
2026-04-18T19:10:10.064,1,597,249310,203407,76
2026-04-18T19:10:10.075,1,598,248851,202846,76
2026-04-18T19:10:10.084,1,599,248851,202846,76
2026-04-18T19:10:10.095,1,600,248851,202846,76
2026-04-18T19:10:10.104,1,601,248851,202846,76
2026-04-18T19:10:10.114,1,602,248249,202114,76
2026-04-18T19:10:10.124,1,603,248249,202114,76
2026-04-18T19:10:10.134,1,604,248249,202114,76
2026-04-18T19:10:10.144,1,605,248249,202114,76
2026-04-18T19:10:10.154,1,606,247821,201609,76
2026-04-18T19:10:10.164,1,607,247821,201609,76
2026-04-18T19:10:10.174,1,608,247821,201609,76
2026-04-18T19:10:10.184,1,609,247821,201609,76
2026-04-18T19:10:10.195,1,610,247444,201238,76
2026-04-18T19:10:10.204,1,611,247444,201238,76
2026-04-18T19:10:10.214,1,612,247444,201238,76
2026-04-18T19:10:10.224,1,613,247444,201238,76
2026-04-18T19:10:10.234,1,614,247006,200733,76
2026-04-18T19:10:10.244,1,615,247006,200733,76
2026-04-18T19:10:10.254,1,616,247006,200733,76
2026-04-18T19:10:10.264,1,617,247006,200733,76
2026-04-18T19:10:10.274,1,618,246377,200124,76
2026-04-18T19:10:10.284,1,619,246377,200124,76
2026-04-18T19:10:10.294,1,620,246377,200124,76
2026-04-18T19:10:10.304,1,621,246377,200124,76
2026-04-18T19:10:10.314,1,622,245712,199389,76
2026-04-18T19:10:10.324,1,623,245712,199389,76
2026-04-18T19:10:10.334,1,624,245712,199389,76
2026-04-18T19:10:10.344,1,625,245712,199389,76
2026-04-18T19:10:10.354,1,626,245726,198818,76
2026-04-18T19:10:10.364,1,627,245726,198818,76
2026-04-18T19:10:10.374,1,628,245726,198818,76
2026-04-18T19:10:10.384,1,629,245726,198818,76
2026-04-18T19:10:10.394,1,630,245272,198314,76
2026-04-18T19:10:10.403,1,631,245272,198314,76
2026-04-18T19:10:10.414,1,632,245272,198314,76
2026-04-18T19:10:10.424,1,633,245272,198314,76
2026-04-18T19:10:10.434,1,634,244989,197935,76
2026-04-18T19:10:10.444,1,635,244989,197935,76
2026-04-18T19:10:10.454,1,636,244989,197935,76
2026-04-18T19:10:10.464,1,637,244989,197935,76
2026-04-18T19:10:10.474,1,638,244730,197665,76
2026-04-18T19:10:10.484,1,639,244730,197665,76
2026-04-18T19:10:10.493,1,640,244730,197665,76
2026-04-18T19:10:10.504,1,641,244730,197665,76
2026-04-18T19:10:10.513,1,642,244485,197349,76
2026-04-18T19:10:10.524,1,643,244485,197349,76
2026-04-18T19:10:10.534,1,644,244485,197349,76
2026-04-18T19:10:10.544,1,645,244485,197349,76
2026-04-18T19:10:10.554,1,646,244289,197067,76
2026-04-18T19:10:10.564,1,647,244289,197067,76
2026-04-18T19:10:10.574,1,648,244289,197067,76
2026-04-18T19:10:10.584,1,649,244289,197067,76
2026-04-18T19:10:10.594,1,650,244136,196799,76
2026-04-18T19:10:10.604,1,651,244136,196799,76
2026-04-18T19:10:10.614,1,652,244136,196799,76
2026-04-18T19:10:10.623,1,653,244136,196799,76
2026-04-18T19:10:10.634,1,654,244112,196663,76
2026-04-18T19:10:10.643,1,655,244112,196663,76
2026-04-18T19:10:10.653,1,656,244112,196663,76
2026-04-18T19:10:10.663,1,657,244112,196663,76
2026-04-18T19:10:10.673,1,658,244078,197195,76
2026-04-18T19:10:10.683,1,659,244078,197195,76
2026-04-18T19:10:10.693,1,660,244078,197195,76
2026-04-18T19:10:10.704,1,661,244078,197195,76
2026-04-18T19:10:10.714,1,662,244101,197122,76
2026-04-18T19:10:10.724,1,663,244101,197122,76
2026-04-18T19:10:10.733,1,664,244101,197122,76
2026-04-18T19:10:10.744,1,665,244101,197122,76
2026-04-18T19:10:10.753,1,666,244341,197235,76
2026-04-18T19:10:10.763,1,667,244341,197235,76
2026-04-18T19:10:10.773,1,668,244341,197235,76
2026-04-18T19:10:10.783,1,669,244341,197235,76
2026-04-18T19:10:10.794,1,670,244512,197374,76
2026-04-18T19:10:10.804,1,671,244512,197374,76
2026-04-18T19:10:10.813,1,672,244512,197374,76
2026-04-18T19:10:10.823,1,673,244512,197374,76
2026-04-18T19:10:10.833,1,674,244582,197435,76
2026-04-18T19:10:10.844,1,675,244582,197435,76
2026-04-18T19:10:10.853,1,676,244582,197435,76
2026-04-18T19:10:10.863,1,677,244582,197435,76
2026-04-18T19:10:10.873,1,678,244568,197481,76
2026-04-18T19:10:10.883,1,679,244568,197481,76
2026-04-18T19:10:10.893,1,680,244568,197481,76
2026-04-18T19:10:10.903,1,681,244568,197481,76
2026-04-18T19:10:10.913,1,682,244554,197501,76
2026-04-18T19:10:10.923,1,683,244554,197501,76
2026-04-18T19:10:10.933,1,684,244554,197501,76
2026-04-18T19:10:10.943,1,685,244554,197501,76
2026-04-18T19:10:10.953,1,686,244589,197516,76
2026-04-18T19:10:10.963,1,687,244589,197516,76
2026-04-18T19:10:10.973,1,688,244589,197516,76
2026-04-18T19:10:10.983,1,689,244589,197516,76
2026-04-18T19:10:10.994,1,690,244588,197523,76
2026-04-18T19:10:11.003,1,691,244588,197523,76
2026-04-18T19:10:11.013,1,692,244588,197523,76
2026-04-18T19:10:11.023,1,693,244588,197523,76
2026-04-18T19:10:11.033,1,694,244608,197525,76
2026-04-18T19:10:11.043,1,695,244608,197525,76
2026-04-18T19:10:11.053,1,696,244608,197525,76
2026-04-18T19:10:11.063,1,697,244608,197525,76
2026-04-18T19:10:11.073,1,698,244583,197525,76
2026-04-18T19:10:11.083,1,699,244583,197525,76
2026-04-18T19:10:11.093,1,700,244583,197525,76
2026-04-18T19:10:11.103,1,701,244583,197525,76
2026-04-18T19:10:11.113,1,702,244607,197517,76
2026-04-18T19:10:11.123,1,703,244607,197517,76
2026-04-18T19:10:11.133,1,704,244607,197517,76
2026-04-18T19:10:11.143,1,705,244607,197517,76
2026-04-18T19:10:11.153,1,706,244616,197516,76
2026-04-18T19:10:11.163,1,707,244616,197516,76
2026-04-18T19:10:11.173,1,708,244616,197516,76
2026-04-18T19:10:11.183,1,709,244616,197516,76
2026-04-18T19:10:11.193,1,710,244627,197528,76
2026-04-18T19:10:11.203,1,711,244627,197528,76
2026-04-18T19:10:11.213,1,712,244627,197528,76
2026-04-18T19:10:11.223,1,713,244627,197528,76
2026-04-18T19:10:11.233,1,714,244662,197528,76
2026-04-18T19:10:11.243,1,715,244662,197528,76
2026-04-18T19:10:11.253,1,716,244662,197528,76
2026-04-18T19:10:11.263,1,717,244662,197528,76
2026-04-18T19:10:11.273,1,718,244694,197528,76
2026-04-18T19:10:11.283,1,719,244694,197528,76
2026-04-18T19:10:11.293,1,720,244694,197528,76
2026-04-18T19:10:11.303,1,721,244694,197528,76
2026-04-18T19:10:11.313,1,722,244686,197507,76
2026-04-18T19:10:11.323,1,723,244686,197507,76
2026-04-18T19:10:11.333,1,724,244686,197507,76
2026-04-18T19:10:11.343,1,725,244686,197507,76
2026-04-18T19:10:11.353,1,726,244734,197541,76
2026-04-18T19:10:11.363,1,727,244734,197541,76
2026-04-18T19:10:11.373,1,728,244734,197541,76
2026-04-18T19:10:11.383,1,729,244734,197541,76
2026-04-18T19:10:11.393,1,730,244746,197548,76
2026-04-18T19:10:11.402,1,731,244746,197548,76
2026-04-18T19:10:11.412,1,732,244746,197548,76
2026-04-18T19:10:11.422,1,733,244746,197548,76
2026-04-18T19:10:11.432,1,734,244787,197560,76
2026-04-18T19:10:11.442,1,735,244787,197560,76
2026-04-18T19:10:11.452,1,736,244787,197560,76
2026-04-18T19:10:11.462,1,737,244787,197560,76
2026-04-18T19:10:11.472,1,738,244825,197564,76
2026-04-18T19:10:11.482,1,739,244825,197564,76
2026-04-18T19:10:11.492,1,740,244825,197564,76
2026-04-18T19:10:11.502,1,741,244825,197564,76
2026-04-18T19:10:11.512,1,742,244895,197587,76
2026-04-18T19:10:11.522,1,743,244895,197587,76
2026-04-18T19:10:11.532,1,744,244895,197587,76
2026-04-18T19:10:11.542,1,745,244895,197587,76
2026-04-18T19:10:11.552,1,746,244992,197629,76
2026-04-18T19:10:11.562,1,747,244992,197629,76
2026-04-18T19:10:11.572,1,748,244992,197629,76
2026-04-18T19:10:11.582,1,749,244992,197629,76
2026-04-18T19:10:11.593,1,750,245033,197615,76
2026-04-18T19:10:11.602,1,751,245033,197615,76
2026-04-18T19:10:11.613,1,752,245033,197615,76
2026-04-18T19:10:11.622,1,753,245033,197615,76
2026-04-18T19:10:11.632,1,754,245073,197645,76
2026-04-18T19:10:11.642,1,755,245073,197645,76
2026-04-18T19:10:11.652,1,756,245073,197645,76
2026-04-18T19:10:11.662,1,757,245073,197645,76
2026-04-18T19:10:11.672,1,758,245095,197677,76
2026-04-18T19:10:11.682,1,759,245095,197677,76
2026-04-18T19:10:11.692,1,760,245095,197677,76
2026-04-18T19:10:11.702,1,761,245095,197677,76
2026-04-18T19:10:11.712,1,762,245138,197700,76
2026-04-18T19:10:11.722,1,763,245138,197700,76
2026-04-18T19:10:11.732,1,764,245138,197700,76
2026-04-18T19:10:11.742,1,765,245138,197700,76
2026-04-18T19:10:11.752,1,766,245170,197702,76
2026-04-18T19:10:11.762,1,767,245170,197702,76
2026-04-18T19:10:11.772,1,768,245170,197702,76
2026-04-18T19:10:11.782,1,769,245170,197702,76
2026-04-18T19:10:11.792,1,770,245156,197711,76
2026-04-18T19:10:11.802,1,771,245156,197711,76
2026-04-18T19:10:11.812,1,772,245156,197711,76
2026-04-18T19:10:11.822,1,773,245156,197711,76
2026-04-18T19:10:11.832,1,774,245192,197717,76
2026-04-18T19:10:11.842,1,775,245192,197717,76
2026-04-18T19:10:11.852,1,776,245192,197717,76
2026-04-18T19:10:11.862,1,777,245192,197717,76
2026-04-18T19:10:11.872,1,778,245240,197766,76
2026-04-18T19:10:11.882,1,779,245240,197766,76
2026-04-18T19:10:11.892,1,780,245240,197766,76
2026-04-18T19:10:11.902,1,781,245240,197766,76
2026-04-18T19:10:11.912,1,782,245256,197749,76
2026-04-18T19:10:11.922,1,783,245256,197749,76
2026-04-18T19:10:11.932,1,784,245256,197749,76
2026-04-18T19:10:11.942,1,785,245256,197749,76
2026-04-18T19:10:11.952,1,786,245287,197813,76
2026-04-18T19:10:11.962,1,787,245287,197813,76
2026-04-18T19:10:11.972,1,788,245287,197813,76
2026-04-18T19:10:11.982,1,789,245287,197813,76
2026-04-18T19:10:11.992,1,790,245320,197773,76
2026-04-18T19:10:12.002,1,791,245320,197773,76
2026-04-18T19:10:12.012,1,792,245320,197773,76
2026-04-18T19:10:12.021,1,793,245320,197773,76
2026-04-18T19:10:12.032,1,794,245310,197806,76
2026-04-18T19:10:12.042,1,795,245310,197806,76
2026-04-18T19:10:12.052,1,796,245310,197806,76
2026-04-18T19:10:12.062,1,797,245310,197806,76
2026-04-18T19:10:12.072,1,798,245334,197797,76
2026-04-18T19:10:12.082,1,799,245334,197797,76
2026-04-18T19:10:12.092,1,800,245334,197797,76
2026-04-18T19:10:12.102,1,801,245334,197797,76
2026-04-18T19:10:12.112,1,802,245358,197798,76
2026-04-18T19:10:12.121,1,803,245358,197798,76
2026-04-18T19:10:12.132,1,804,245358,197798,76
2026-04-18T19:10:12.142,1,805,245358,197798,76
2026-04-18T19:10:12.152,1,806,245385,197817,76
2026-04-18T19:10:12.162,1,807,245385,197817,76
2026-04-18T19:10:12.172,1,808,245385,197817,76
2026-04-18T19:10:12.182,1,809,245385,197817,76
2026-04-18T19:10:12.192,1,810,245467,197821,76
2026-04-18T19:10:12.202,1,811,245467,197821,76
2026-04-18T19:10:12.212,1,812,245467,197821,76
2026-04-18T19:10:12.221,1,813,245467,197821,76
2026-04-18T19:10:12.232,1,814,245501,197859,76
2026-04-18T19:10:12.242,1,815,245501,197859,76
2026-04-18T19:10:12.252,1,816,245501,197859,76
2026-04-18T19:10:12.262,1,817,245501,197859,76
2026-04-18T19:10:12.272,1,818,245578,197893,76
2026-04-18T19:10:12.282,1,819,245578,197893,76
2026-04-18T19:10:12.291,1,820,245578,197893,76
2026-04-18T19:10:12.301,1,821,245578,197893,76
2026-04-18T19:10:12.312,1,822,245643,197929,76
2026-04-18T19:10:12.321,1,823,245643,197929,76
2026-04-18T19:10:12.332,1,824,245643,197929,76
2026-04-18T19:10:12.342,1,825,245643,197929,76
2026-04-18T19:10:12.351,1,826,245685,197969,76
2026-04-18T19:10:12.362,1,827,245685,197969,76
2026-04-18T19:10:12.371,1,828,245685,197969,76
2026-04-18T19:10:12.381,1,829,245685,197969,76
2026-04-18T19:10:12.391,1,830,245736,197988,76
2026-04-18T19:10:12.402,1,831,245736,197988,76
2026-04-18T19:10:12.412,1,832,245736,197988,76
2026-04-18T19:10:12.421,1,833,245736,197988,76
2026-04-18T19:10:12.431,1,834,245785,197983,76
2026-04-18T19:10:12.442,1,835,245785,197983,76
2026-04-18T19:10:12.451,1,836,245785,197983,76
2026-04-18T19:10:12.461,1,837,245785,197983,76
2026-04-18T19:10:12.471,1,838,245793,198009,76
2026-04-18T19:10:12.481,1,839,245793,198009,76
2026-04-18T19:10:12.491,1,840,245793,198009,76
2026-04-18T19:10:12.502,1,841,245793,198009,76
2026-04-18T19:10:12.511,1,842,245821,198025,76
2026-04-18T19:10:12.521,1,843,245821,198025,76
2026-04-18T19:10:12.531,1,844,245821,198025,76
2026-04-18T19:10:12.541,1,845,245821,198025,76
2026-04-18T19:10:12.551,1,846,245829,198022,76
2026-04-18T19:10:12.562,1,847,245829,198022,76
2026-04-18T19:10:12.571,1,848,245829,198022,76
2026-04-18T19:10:12.581,1,849,245829,198022,76
2026-04-18T19:10:12.592,1,850,245861,198022,76
2026-04-18T19:10:12.601,1,851,245861,198022,76
2026-04-18T19:10:12.612,1,852,245861,198022,76
2026-04-18T19:10:12.622,1,853,245861,198022,76
2026-04-18T19:10:12.631,1,854,245918,198091,76
2026-04-18T19:10:12.641,1,855,245918,198091,76
2026-04-18T19:10:12.651,1,856,245918,198091,76
2026-04-18T19:10:12.662,1,857,245918,198091,76
2026-04-18T19:10:12.671,1,858,245953,198079,76
2026-04-18T19:10:12.681,1,859,245953,198079,76
2026-04-18T19:10:12.691,1,860,245953,198079,76
2026-04-18T19:10:12.701,1,861,245953,198079,76
2026-04-18T19:10:12.711,1,862,245997,198118,76
2026-04-18T19:10:12.721,1,863,245997,198118,76
2026-04-18T19:10:12.731,1,864,245997,198118,76
2026-04-18T19:10:12.741,1,865,245997,198118,76
2026-04-18T19:10:12.751,1,866,246021,198149,76
2026-04-18T19:10:12.761,1,867,246021,198149,76
2026-04-18T19:10:12.771,1,868,246021,198149,76
2026-04-18T19:10:12.781,1,869,246021,198149,76
2026-04-18T19:10:12.791,1,870,246018,198152,76
2026-04-18T19:10:12.801,1,871,246018,198152,76
2026-04-18T19:10:12.811,1,872,246018,198152,76
2026-04-18T19:10:12.821,1,873,246018,198152,76
2026-04-18T19:10:12.831,1,874,245991,198096,76
2026-04-18T19:10:12.841,1,875,245991,198096,76
2026-04-18T19:10:12.851,1,876,245991,198096,76
2026-04-18T19:10:12.862,1,877,245991,198096,76
2026-04-18T19:10:12.871,1,878,246020,198087,76
2026-04-18T19:10:12.881,1,879,246020,198087,76
2026-04-18T19:10:12.891,1,880,246020,198087,76
2026-04-18T19:10:12.901,1,881,246020,198087,76
2026-04-18T19:10:12.911,1,882,245964,198042,76
2026-04-18T19:10:12.921,1,883,245964,198042,76
2026-04-18T19:10:12.931,1,884,245964,198042,76
2026-04-18T19:10:12.941,1,885,245964,198042,76
2026-04-18T19:10:12.951,1,886,245965,198007,76
2026-04-18T19:10:12.961,1,887,245965,198007,76
2026-04-18T19:10:12.971,1,888,245965,198007,76
2026-04-18T19:10:12.981,1,889,245965,198007,76
2026-04-18T19:10:12.991,1,890,245969,197996,76
2026-04-18T19:10:13.001,1,891,245969,197996,76
2026-04-18T19:10:13.011,1,892,245969,197996,76
2026-04-18T19:10:13.021,1,893,245969,197996,76
2026-04-18T19:10:13.031,1,894,245918,197945,76
2026-04-18T19:10:13.041,1,895,245918,197945,76
2026-04-18T19:10:13.051,1,896,245918,197945,76
2026-04-18T19:10:13.061,1,897,245918,197945,76
2026-04-18T19:10:13.071,1,898,245903,197914,76
2026-04-18T19:10:13.081,1,899,245903,197914,76
2026-04-18T19:10:13.091,1,900,245903,197914,76
2026-04-18T19:10:13.101,1,901,245903,197914,76
2026-04-18T19:10:13.111,1,902,245875,197879,76
2026-04-18T19:10:13.121,1,903,245875,197879,76
2026-04-18T19:10:13.131,1,904,245875,197879,76
2026-04-18T19:10:13.141,1,905,245875,197879,76
2026-04-18T19:10:13.150,1,906,245922,197889,76
2026-04-18T19:10:13.161,1,907,245922,197889,76
2026-04-18T19:10:13.171,1,908,245922,197889,76
2026-04-18T19:10:13.181,1,909,245922,197889,76
2026-04-18T19:10:13.191,1,910,245985,197887,76
2026-04-18T19:10:13.200,1,911,245985,197887,76
2026-04-18T19:10:13.210,1,912,245985,197887,76
2026-04-18T19:10:13.220,1,913,245985,197887,76
2026-04-18T19:10:13.230,1,914,245991,197907,76
2026-04-18T19:10:13.240,1,915,245991,197907,76
2026-04-18T19:10:13.250,1,916,245991,197907,76
2026-04-18T19:10:13.260,1,917,245991,197907,76
2026-04-18T19:10:13.270,1,918,246017,197917,76
2026-04-18T19:10:13.280,1,919,246017,197917,76
2026-04-18T19:10:13.290,1,920,246017,197917,76
2026-04-18T19:10:13.300,1,921,246017,197917,76
2026-04-18T19:10:13.310,1,922,246027,197935,76
2026-04-18T19:10:13.320,1,923,246027,197935,76
2026-04-18T19:10:13.330,1,924,246027,197935,76
2026-04-18T19:10:13.340,1,925,246027,197935,76
2026-04-18T19:10:13.350,1,926,246049,197906,76
2026-04-18T19:10:13.360,1,927,246049,197906,76
2026-04-18T19:10:13.370,1,928,246049,197906,76
2026-04-18T19:10:13.380,1,929,246049,197906,76
2026-04-18T19:10:13.390,1,930,246071,197928,76
2026-04-18T19:10:13.400,1,931,246071,197928,76
2026-04-18T19:10:13.410,1,932,246071,197928,76
2026-04-18T19:10:13.420,1,933,246071,197928,76
2026-04-18T19:10:13.430,1,934,246104,197910,76
2026-04-18T19:10:13.440,1,935,246104,197910,76
2026-04-18T19:10:13.450,1,936,246104,197910,76
2026-04-18T19:10:13.460,1,937,246104,197910,76
2026-04-18T19:10:13.470,1,938,246134,197915,76
2026-04-18T19:10:13.480,1,939,246134,197915,76
2026-04-18T19:10:13.490,1,940,246134,197915,76
2026-04-18T19:10:13.500,1,941,246134,197915,76
2026-04-18T19:10:13.510,1,942,246143,197931,76
2026-04-18T19:10:13.520,1,943,246143,197931,76
2026-04-18T19:10:13.530,1,944,246143,197931,76
2026-04-18T19:10:13.540,1,945,246143,197931,76
2026-04-18T19:10:13.550,1,946,246152,197921,76
2026-04-18T19:10:13.560,1,947,246152,197921,76
2026-04-18T19:10:13.570,1,948,246152,197921,76
2026-04-18T19:10:13.580,1,949,246152,197921,76
2026-04-18T19:10:13.590,1,950,246170,197938,76
2026-04-18T19:10:13.600,1,951,246170,197938,76
2026-04-18T19:10:13.610,1,952,246170,197938,76
2026-04-18T19:10:13.620,1,953,246170,197938,76
2026-04-18T19:10:13.630,1,954,246197,197931,76
2026-04-18T19:10:13.640,1,955,246197,197931,76
2026-04-18T19:10:13.650,1,956,246197,197931,76
2026-04-18T19:10:13.660,1,957,246197,197931,76
2026-04-18T19:10:13.669,1,958,246223,197933,76
2026-04-18T19:10:13.680,1,959,246223,197933,76
2026-04-18T19:10:13.690,1,960,246223,197933,76
2026-04-18T19:10:13.700,1,961,246223,197933,76
2026-04-18T19:10:13.709,1,962,246188,197943,76
2026-04-18T19:10:13.720,1,963,246188,197943,76
2026-04-18T19:10:13.729,1,964,246188,197943,76
2026-04-18T19:10:13.739,1,965,246188,197943,76
2026-04-18T19:10:13.750,1,966,246199,197922,76
2026-04-18T19:10:13.760,1,967,246199,197922,76
2026-04-18T19:10:13.769,1,968,246199,197922,76
2026-04-18T19:10:13.779,1,969,246199,197922,76
2026-04-18T19:10:13.789,1,970,246245,197939,76
2026-04-18T19:10:13.799,1,971,246245,197939,76
2026-04-18T19:10:13.810,1,972,246245,197939,76
2026-04-18T19:10:13.819,1,973,246245,197939,76
2026-04-18T19:10:13.830,1,974,246256,197980,76
2026-04-18T19:10:13.840,1,975,246256,197980,76
2026-04-18T19:10:13.850,1,976,246256,197980,76
2026-04-18T19:10:13.859,1,977,246256,197980,76
2026-04-18T19:10:13.870,1,978,246303,197965,76
2026-04-18T19:10:13.880,1,979,246303,197965,76
2026-04-18T19:10:13.890,1,980,246303,197965,76
2026-04-18T19:10:13.900,1,981,246303,197965,76
2026-04-18T19:10:13.909,1,982,246299,197987,76
2026-04-18T19:10:13.920,1,983,246299,197987,76
2026-04-18T19:10:13.930,1,984,246299,197987,76
2026-04-18T19:10:13.940,1,985,246299,197987,76
2026-04-18T19:10:13.949,1,986,246304,198003,76
2026-04-18T19:10:13.960,1,987,246304,198003,76
2026-04-18T19:10:13.969,1,988,246304,198003,76
2026-04-18T19:10:13.980,1,989,246304,198003,76
2026-04-18T19:10:13.990,1,990,246325,198020,76
2026-04-18T19:10:14.000,1,991,246325,198020,76
2026-04-18T19:10:14.009,1,992,246325,198020,76
2026-04-18T19:10:14.019,1,993,246325,198020,76
2026-04-18T19:10:14.030,1,994,246385,198021,76
2026-04-18T19:10:14.039,1,995,246385,198021,76
2026-04-18T19:10:14.049,1,996,246385,198021,76
2026-04-18T19:10:14.060,1,997,246385,198021,76
2026-04-18T19:10:14.070,1,998,246425,198031,76
2026-04-18T19:10:14.080,1,999,246425,198031,76
2026-04-18T19:10:14.090,1,1000,246425,198031,76
2026-04-18T19:10:14.099,1,1001,246425,198031,76
2026-04-18T19:10:44.693,2,0,246859,198897,76
2026-04-18T19:10:44.693,2,1,246859,198897,76
2026-04-18T19:10:44.694,2,2,246859,198897,76
2026-04-18T19:10:44.694,2,3,246859,198897,76
2026-04-18T19:10:44.694,2,4,246857,198891,76
2026-04-18T19:10:44.694,2,5,246857,198891,76
2026-04-18T19:10:44.694,2,6,246857,198891,76
2026-04-18T19:10:44.694,2,7,246857,198891,76
2026-04-18T19:10:44.695,2,8,246853,198870,76
2026-04-18T19:10:44.695,2,9,246853,198870,76
2026-04-18T19:10:44.695,2,10,246853,198870,76
2026-04-18T19:10:44.695,2,11,246853,198870,76
2026-04-18T19:10:44.695,2,12,246900,198895,76
2026-04-18T19:10:44.695,2,13,246900,198895,76
2026-04-18T19:10:44.696,2,14,246900,198895,76
2026-04-18T19:10:44.696,2,15,246900,198895,76
2026-04-18T19:10:44.696,2,16,246894,198921,76
2026-04-18T19:10:44.696,2,17,246894,198921,76
2026-04-18T19:10:44.696,2,18,246894,198921,76
2026-04-18T19:10:44.696,2,19,249832,201607,76
2026-04-18T19:10:44.697,2,20,249832,201607,76
2026-04-18T19:10:44.697,2,21,249832,201607,76
2026-04-18T19:10:44.697,2,22,249832,201607,76
2026-04-18T19:10:44.697,2,23,249832,201607,76
2026-04-18T19:10:44.697,2,24,249832,201607,76
2026-04-18T19:10:44.697,2,25,249832,201607,76
2026-04-18T19:10:44.697,2,26,249832,201607,76
2026-04-18T19:10:44.698,2,27,249832,201607,76
2026-04-18T19:10:44.698,2,28,249832,201607,76
2026-04-18T19:10:44.698,2,29,249832,201607,76
2026-04-18T19:10:44.698,2,30,249832,201607,76
2026-04-18T19:10:44.698,2,31,249832,201607,76
2026-04-18T19:10:44.698,2,32,249832,201607,76
2026-04-18T19:10:44.698,2,33,249832,201607,76
2026-04-18T19:10:44.699,2,34,249832,201607,76
2026-04-18T19:10:44.701,2,35,249832,201607,76
2026-04-18T19:10:44.711,2,36,249832,201608,76
2026-04-18T19:10:44.721,2,37,249832,201608,76
2026-04-18T19:10:44.731,2,38,249832,201608,76
2026-04-18T19:10:44.741,2,39,249832,201608,76
2026-04-18T19:10:44.751,2,40,249855,201618,76
2026-04-18T19:10:44.761,2,41,249855,201618,76
2026-04-18T19:10:44.771,2,42,249855,201618,76
2026-04-18T19:10:44.781,2,43,249855,201618,76
2026-04-18T19:10:44.791,2,44,249893,201633,76
2026-04-18T19:10:44.801,2,45,249893,201633,76
2026-04-18T19:10:44.811,2,46,249893,201633,76
2026-04-18T19:10:44.821,2,47,249893,201633,76
2026-04-18T19:10:44.831,2,48,249878,201655,76
2026-04-18T19:10:44.841,2,49,249878,201655,76
2026-04-18T19:10:44.851,2,50,249878,201655,76
2026-04-18T19:10:44.861,2,51,249878,201655,76
2026-04-18T19:10:44.871,2,52,249867,201650,76
2026-04-18T19:10:44.881,2,53,249867,201650,76
2026-04-18T19:10:44.891,2,54,249867,201650,76
2026-04-18T19:10:44.901,2,55,249867,201650,76
2026-04-18T19:10:44.911,2,56,249863,201684,76
2026-04-18T19:10:44.921,2,57,249863,201684,76
2026-04-18T19:10:44.931,2,58,249863,201684,76
2026-04-18T19:10:44.941,2,59,249863,201684,76
2026-04-18T19:10:44.951,2,60,249866,201718,76
2026-04-18T19:10:44.961,2,61,249866,201718,76
2026-04-18T19:10:44.971,2,62,249866,201718,76
2026-04-18T19:10:44.980,2,63,249866,201718,76
2026-04-18T19:10:44.990,2,64,249862,201698,76
2026-04-18T19:10:45.000,2,65,249862,201698,76
2026-04-18T19:10:45.010,2,66,249862,201698,76
2026-04-18T19:10:45.021,2,67,249862,201698,76
2026-04-18T19:10:45.030,2,68,249834,201662,76
2026-04-18T19:10:45.041,2,69,249834,201662,76
2026-04-18T19:10:45.051,2,70,249834,201662,76
2026-04-18T19:10:45.060,2,71,249834,201662,76
2026-04-18T19:10:45.070,2,72,249864,201657,76
2026-04-18T19:10:45.081,2,73,249864,201657,76
2026-04-18T19:10:45.091,2,74,249864,201657,76
2026-04-18T19:10:45.100,2,75,249864,201657,76
2026-04-18T19:10:45.110,2,76,249860,201679,76
2026-04-18T19:10:45.120,2,77,249860,201679,76
2026-04-18T19:10:45.130,2,78,249860,201679,76
2026-04-18T19:10:45.141,2,79,249860,201679,76
2026-04-18T19:10:45.150,2,80,249843,201694,76
2026-04-18T19:10:45.160,2,81,249843,201694,76
2026-04-18T19:10:45.171,2,82,249843,201694,76
2026-04-18T19:10:45.180,2,83,249843,201694,76
2026-04-18T19:10:45.190,2,84,249856,201681,76
2026-04-18T19:10:45.201,2,85,249856,201681,76
2026-04-18T19:10:45.211,2,86,249856,201681,76
2026-04-18T19:10:45.220,2,87,249856,201681,76
2026-04-18T19:10:45.231,2,88,249832,201676,76
2026-04-18T19:10:45.240,2,89,249832,201676,76
2026-04-18T19:10:45.250,2,90,249832,201676,76
2026-04-18T19:10:45.260,2,91,249832,201676,76
2026-04-18T19:10:45.270,2,92,249844,201674,76
2026-04-18T19:10:45.280,2,93,249844,201674,76
2026-04-18T19:10:45.290,2,94,249844,201674,76
2026-04-18T19:10:45.300,2,95,249844,201674,76
2026-04-18T19:10:45.310,2,96,249856,201682,76
2026-04-18T19:10:45.320,2,97,249856,201682,76
2026-04-18T19:10:45.330,2,98,249856,201682,76
2026-04-18T19:10:45.340,2,99,249856,201682,76
2026-04-18T19:10:45.350,2,100,249828,201705,76
2026-04-18T19:10:45.360,2,101,249828,201705,76
2026-04-18T19:10:45.370,2,102,249828,201705,76
2026-04-18T19:10:45.380,2,103,249828,201705,76
2026-04-18T19:10:45.390,2,104,249849,201678,76
2026-04-18T19:10:45.400,2,105,249849,201678,76
2026-04-18T19:10:45.410,2,106,249849,201678,76
2026-04-18T19:10:45.420,2,107,249849,201678,76
2026-04-18T19:10:45.430,2,108,249869,201667,76
2026-04-18T19:10:45.440,2,109,249869,201667,76
2026-04-18T19:10:45.450,2,110,249869,201667,76
2026-04-18T19:10:45.460,2,111,249869,201667,76
2026-04-18T19:10:45.470,2,112,249880,201693,76
2026-04-18T19:10:45.480,2,113,249880,201693,76
2026-04-18T19:10:45.490,2,114,249880,201693,76
2026-04-18T19:10:45.500,2,115,249880,201693,76
2026-04-18T19:10:45.510,2,116,249893,201702,76
2026-04-18T19:10:45.520,2,117,249893,201702,76
2026-04-18T19:10:45.530,2,118,249893,201702,76
2026-04-18T19:10:45.540,2,119,249893,201702,76
2026-04-18T19:10:45.550,2,120,249921,201701,76
2026-04-18T19:10:45.560,2,121,249921,201701,76
2026-04-18T19:10:45.570,2,122,249921,201701,76
2026-04-18T19:10:45.580,2,123,249921,201701,76
2026-04-18T19:10:45.590,2,124,249894,201721,76
2026-04-18T19:10:45.600,2,125,249894,201721,76
2026-04-18T19:10:45.610,2,126,249894,201721,76
2026-04-18T19:10:45.620,2,127,249894,201721,76
2026-04-18T19:10:45.630,2,128,249904,201718,76
2026-04-18T19:10:45.640,2,129,249904,201718,76
2026-04-18T19:10:45.650,2,130,249904,201718,76
2026-04-18T19:10:45.660,2,131,249904,201718,76
2026-04-18T19:10:45.670,2,132,249891,201722,76
2026-04-18T19:10:45.680,2,133,249891,201722,76
2026-04-18T19:10:45.690,2,134,249891,201722,76
2026-04-18T19:10:45.700,2,135,249891,201722,76
2026-04-18T19:10:45.710,2,136,249875,201747,76
2026-04-18T19:10:45.720,2,137,249875,201747,76
2026-04-18T19:10:45.729,2,138,249875,201747,76
2026-04-18T19:10:45.740,2,139,249875,201747,76
2026-04-18T19:10:45.750,2,140,249888,201739,76
2026-04-18T19:10:45.760,2,141,249888,201739,76
2026-04-18T19:10:45.770,2,142,249888,201739,76
2026-04-18T19:10:45.780,2,143,249888,201739,76
2026-04-18T19:10:45.790,2,144,249877,201728,76
2026-04-18T19:10:45.800,2,145,249877,201728,76
2026-04-18T19:10:45.810,2,146,249877,201728,76
2026-04-18T19:10:45.820,2,147,249877,201728,76
2026-04-18T19:10:45.830,2,148,249846,201737,76
2026-04-18T19:10:45.840,2,149,249846,201737,76
2026-04-18T19:10:45.850,2,150,249846,201737,76
2026-04-18T19:10:45.860,2,151,249846,201737,76
2026-04-18T19:10:45.870,2,152,249847,201743,76
2026-04-18T19:10:45.880,2,153,249847,201743,76
2026-04-18T19:10:45.890,2,154,249847,201743,76
2026-04-18T19:10:45.900,2,155,249847,201743,76
2026-04-18T19:10:45.910,2,156,249831,201724,76
2026-04-18T19:10:45.919,2,157,249831,201724,76
2026-04-18T19:10:45.930,2,158,249831,201724,76
2026-04-18T19:10:45.940,2,159,249831,201724,76
2026-04-18T19:10:45.950,2,160,249846,201735,76
2026-04-18T19:10:45.959,2,161,249846,201735,76
2026-04-18T19:10:45.970,2,162,249846,201735,76
2026-04-18T19:10:45.980,2,163,249846,201735,76
2026-04-18T19:10:45.989,2,164,249844,201727,76
2026-04-18T19:10:46.000,2,165,249844,201727,76
2026-04-18T19:10:46.009,2,166,249844,201727,76
2026-04-18T19:10:46.019,2,167,249844,201727,76
2026-04-18T19:10:46.029,2,168,249855,201730,76
2026-04-18T19:10:46.039,2,169,249855,201730,76
2026-04-18T19:10:46.049,2,170,249855,201730,76
2026-04-18T19:10:46.059,2,171,249855,201730,76
2026-04-18T19:10:46.069,2,172,249844,201697,76
2026-04-18T19:10:46.079,2,173,249844,201697,76
2026-04-18T19:10:46.089,2,174,249844,201697,76
2026-04-18T19:10:46.099,2,175,249844,201697,76
2026-04-18T19:10:46.109,2,176,249859,201713,76
2026-04-18T19:10:46.119,2,177,249859,201713,76
2026-04-18T19:10:46.129,2,178,249859,201713,76
2026-04-18T19:10:46.139,2,179,249859,201713,76
2026-04-18T19:10:46.149,2,180,249829,201708,76
2026-04-18T19:10:46.159,2,181,249829,201708,76
2026-04-18T19:10:46.169,2,182,249829,201708,76
2026-04-18T19:10:46.179,2,183,249829,201708,76
2026-04-18T19:10:46.189,2,184,249852,201704,76
2026-04-18T19:10:46.199,2,185,249852,201704,76
2026-04-18T19:10:46.209,2,186,249852,201704,76
2026-04-18T19:10:46.219,2,187,249852,201704,76
2026-04-18T19:10:46.229,2,188,249882,201720,76
2026-04-18T19:10:46.239,2,189,249882,201720,76
2026-04-18T19:10:46.249,2,190,249882,201720,76
2026-04-18T19:10:46.259,2,191,249882,201720,76
2026-04-18T19:10:46.269,2,192,249882,201738,76
2026-04-18T19:10:46.279,2,193,249882,201738,76
2026-04-18T19:10:46.289,2,194,249882,201738,76
2026-04-18T19:10:46.299,2,195,249882,201738,76
2026-04-18T19:10:46.309,2,196,249886,201735,76
2026-04-18T19:10:46.319,2,197,249886,201735,76
2026-04-18T19:10:46.329,2,198,249886,201735,76
2026-04-18T19:10:46.339,2,199,249886,201735,76
2026-04-18T19:10:46.349,2,200,249893,201740,76
2026-04-18T19:10:46.359,2,201,249893,201740,76
2026-04-18T19:10:46.369,2,202,249893,201740,76
2026-04-18T19:10:46.379,2,203,249893,201740,76
2026-04-18T19:10:46.389,2,204,249878,201748,76
2026-04-18T19:10:46.399,2,205,249878,201748,76
2026-04-18T19:10:46.409,2,206,249878,201748,76
2026-04-18T19:10:46.419,2,207,249878,201748,76
2026-04-18T19:10:46.429,2,208,249873,201742,76
2026-04-18T19:10:46.439,2,209,249873,201742,76
2026-04-18T19:10:46.449,2,210,249873,201742,76
2026-04-18T19:10:46.459,2,211,249873,201742,76
2026-04-18T19:10:46.469,2,212,249867,201750,76
2026-04-18T19:10:46.479,2,213,249867,201750,76
2026-04-18T19:10:46.489,2,214,249867,201750,76
2026-04-18T19:10:46.499,2,215,249867,201750,76
2026-04-18T19:10:46.509,2,216,249896,201764,76
2026-04-18T19:10:46.519,2,217,249896,201764,76
2026-04-18T19:10:46.529,2,218,249896,201764,76
2026-04-18T19:10:46.539,2,219,249896,201764,76
2026-04-18T19:10:46.549,2,220,249888,201773,76
2026-04-18T19:10:46.559,2,221,249888,201773,76
2026-04-18T19:10:46.569,2,222,249888,201773,76
2026-04-18T19:10:46.579,2,223,249888,201773,76
2026-04-18T19:10:46.589,2,224,249894,201770,76
2026-04-18T19:10:46.599,2,225,249894,201770,76
2026-04-18T19:10:46.609,2,226,249894,201770,76
2026-04-18T19:10:46.619,2,227,249894,201770,76
2026-04-18T19:10:46.629,2,228,249837,201727,76
2026-04-18T19:10:46.639,2,229,249837,201727,76
2026-04-18T19:10:46.649,2,230,249837,201727,76
2026-04-18T19:10:46.659,2,231,249837,201727,76
2026-04-18T19:10:46.668,2,232,249822,201715,76
2026-04-18T19:10:46.679,2,233,249822,201715,76
2026-04-18T19:10:46.689,2,234,249822,201715,76
2026-04-18T19:10:46.699,2,235,249822,201715,76
2026-04-18T19:10:46.709,2,236,249811,201690,76
2026-04-18T19:10:46.719,2,237,249811,201690,76
2026-04-18T19:10:46.729,2,238,249811,201690,76
2026-04-18T19:10:46.739,2,239,249811,201690,76
2026-04-18T19:10:46.749,2,240,249771,201674,76
2026-04-18T19:10:46.758,2,241,249771,201674,76
2026-04-18T19:10:46.769,2,242,249771,201674,76
2026-04-18T19:10:46.778,2,243,249771,201674,76
2026-04-18T19:10:46.789,2,244,249757,201660,76
2026-04-18T19:10:46.798,2,245,249757,201660,76
2026-04-18T19:10:46.808,2,246,249757,201660,76
2026-04-18T19:10:46.818,2,247,249757,201660,76
2026-04-18T19:10:46.828,2,248,249769,201660,76
2026-04-18T19:10:46.838,2,249,249769,201660,76
2026-04-18T19:10:46.848,2,250,249769,201660,76
2026-04-18T19:10:46.858,2,251,249769,201660,76
2026-04-18T19:10:46.868,2,252,249767,201649,76
2026-04-18T19:10:46.878,2,253,249767,201649,76
2026-04-18T19:10:46.888,2,254,249767,201649,76
2026-04-18T19:10:46.898,2,255,249767,201649,76
2026-04-18T19:10:46.908,2,256,249718,201658,76
2026-04-18T19:10:46.918,2,257,249718,201658,76
2026-04-18T19:10:46.928,2,258,249718,201658,76
2026-04-18T19:10:46.938,2,259,249718,201658,76
2026-04-18T19:10:46.948,2,260,249705,201592,76
2026-04-18T19:10:46.958,2,261,249705,201592,76
2026-04-18T19:10:46.969,2,262,249705,201592,76
2026-04-18T19:10:46.978,2,263,249705,201592,76
2026-04-18T19:10:46.989,2,264,249712,201578,76
2026-04-18T19:10:46.998,2,265,249712,201578,76
2026-04-18T19:10:47.009,2,266,249712,201578,76
2026-04-18T19:10:47.018,2,267,249712,201578,76
2026-04-18T19:10:47.028,2,268,249706,201588,76
2026-04-18T19:10:47.038,2,269,249706,201588,76
2026-04-18T19:10:47.048,2,270,249706,201588,76
2026-04-18T19:10:47.058,2,271,249706,201588,76
2026-04-18T19:10:47.068,2,272,249711,201605,76
2026-04-18T19:10:47.078,2,273,249711,201605,76
2026-04-18T19:10:47.088,2,274,249711,201605,76
2026-04-18T19:10:47.098,2,275,249711,201605,76
2026-04-18T19:10:47.108,2,276,249735,201582,76
2026-04-18T19:10:47.118,2,277,249735,201582,76
2026-04-18T19:10:47.128,2,278,249735,201582,76
2026-04-18T19:10:47.138,2,279,249735,201582,76
2026-04-18T19:10:47.148,2,280,249715,201588,76
2026-04-18T19:10:47.158,2,281,249715,201588,76
2026-04-18T19:10:47.168,2,282,249715,201588,76
2026-04-18T19:10:47.178,2,283,249715,201588,76
2026-04-18T19:10:47.188,2,284,249746,201631,76
2026-04-18T19:10:47.198,2,285,249746,201631,76
2026-04-18T19:10:47.208,2,286,249746,201631,76
2026-04-18T19:10:47.218,2,287,249746,201631,76
2026-04-18T19:10:47.228,2,288,249753,201634,76
2026-04-18T19:10:47.239,2,289,249753,201634,76
2026-04-18T19:10:47.248,2,290,249753,201634,76
2026-04-18T19:10:47.258,2,291,249753,201634,76
2026-04-18T19:10:47.268,2,292,249777,201653,76
2026-04-18T19:10:47.278,2,293,249777,201653,76
2026-04-18T19:10:47.288,2,294,249777,201653,76
2026-04-18T19:10:47.298,2,295,249777,201653,76
2026-04-18T19:10:47.308,2,296,249763,201654,76
2026-04-18T19:10:47.318,2,297,249763,201654,76
2026-04-18T19:10:47.328,2,298,249763,201654,76
2026-04-18T19:10:47.338,2,299,249763,201654,76
2026-04-18T19:10:47.348,2,300,249780,201630,76
2026-04-18T19:10:47.358,2,301,249780,201630,76
2026-04-18T19:10:47.368,2,302,249780,201630,76
2026-04-18T19:10:47.378,2,303,249780,201630,76
2026-04-18T19:10:47.388,2,304,249770,201622,76
2026-04-18T19:10:47.398,2,305,249770,201622,76
2026-04-18T19:10:47.408,2,306,249770,201622,76
2026-04-18T19:10:47.418,2,307,249770,201622,76
2026-04-18T19:10:47.428,2,308,249732,201610,76
2026-04-18T19:10:47.438,2,309,249732,201610,76
2026-04-18T19:10:47.448,2,310,249732,201610,76
2026-04-18T19:10:47.458,2,311,249732,201610,76
2026-04-18T19:10:47.468,2,312,249723,201601,76
2026-04-18T19:10:47.478,2,313,249723,201601,76
2026-04-18T19:10:47.487,2,314,249723,201601,76
2026-04-18T19:10:47.498,2,315,249723,201601,76
2026-04-18T19:10:47.508,2,316,249732,201590,76
2026-04-18T19:10:47.518,2,317,249732,201590,76
2026-04-18T19:10:47.528,2,318,249732,201590,76
2026-04-18T19:10:47.538,2,319,249732,201590,76
2026-04-18T19:10:47.548,2,320,249755,201606,76
2026-04-18T19:10:47.558,2,321,249755,201606,76
2026-04-18T19:10:47.568,2,322,249755,201606,76
2026-04-18T19:10:47.578,2,323,249755,201606,76
2026-04-18T19:10:47.587,2,324,249756,201640,76
2026-04-18T19:10:47.598,2,325,249756,201640,76
2026-04-18T19:10:47.608,2,326,249756,201640,76
2026-04-18T19:10:47.618,2,327,249756,201640,76
2026-04-18T19:10:47.628,2,328,249764,201633,76
2026-04-18T19:10:47.638,2,329,249764,201633,76
2026-04-18T19:10:47.648,2,330,249764,201633,76
2026-04-18T19:10:47.658,2,331,249764,201633,76
2026-04-18T19:10:47.668,2,332,249763,201623,76
2026-04-18T19:10:47.677,2,333,249763,201623,76
2026-04-18T19:10:47.688,2,334,249763,201623,76
2026-04-18T19:10:47.697,2,335,249763,201623,76
2026-04-18T19:10:47.707,2,336,249802,201625,76
2026-04-18T19:10:47.717,2,337,249802,201625,76
2026-04-18T19:10:47.727,2,338,249802,201625,76
2026-04-18T19:10:47.737,2,339,249802,201625,76
2026-04-18T19:10:47.747,2,340,249795,201639,76
2026-04-18T19:10:47.757,2,341,249795,201639,76
2026-04-18T19:10:47.768,2,342,249795,201639,76
2026-04-18T19:10:47.777,2,343,249795,201639,76
2026-04-18T19:10:47.787,2,344,249842,201652,76
2026-04-18T19:10:47.797,2,345,249842,201652,76
2026-04-18T19:10:47.807,2,346,249842,201652,76
2026-04-18T19:10:47.817,2,347,249842,201652,76
2026-04-18T19:10:47.827,2,348,249868,201670,76
2026-04-18T19:10:47.837,2,349,249868,201670,76
2026-04-18T19:10:47.847,2,350,249868,201670,76
2026-04-18T19:10:47.857,2,351,249868,201670,76
2026-04-18T19:10:47.867,2,352,249902,201698,76
2026-04-18T19:10:47.877,2,353,249902,201698,76
2026-04-18T19:10:47.887,2,354,249902,201698,76
2026-04-18T19:10:47.897,2,355,249902,201698,76
2026-04-18T19:10:47.908,2,356,249961,201721,76
2026-04-18T19:10:47.917,2,357,249961,201721,76
2026-04-18T19:10:47.927,2,358,249961,201721,76
2026-04-18T19:10:47.937,2,359,249961,201721,76
2026-04-18T19:10:47.947,2,360,249964,201754,76
2026-04-18T19:10:47.957,2,361,249964,201754,76
2026-04-18T19:10:47.968,2,362,249964,201754,76
2026-04-18T19:10:47.977,2,363,249964,201754,76
2026-04-18T19:10:47.987,2,364,249992,201821,76
2026-04-18T19:10:47.997,2,365,249992,201821,76
2026-04-18T19:10:48.008,2,366,249992,201821,76
2026-04-18T19:10:48.017,2,367,249992,201821,76
2026-04-18T19:10:48.027,2,368,250024,201834,76
2026-04-18T19:10:48.037,2,369,250024,201834,76
2026-04-18T19:10:48.047,2,370,250024,201834,76
2026-04-18T19:10:48.057,2,371,250024,201834,76
2026-04-18T19:10:48.067,2,372,250063,201871,76
2026-04-18T19:10:48.077,2,373,250063,201871,76
2026-04-18T19:10:48.087,2,374,250063,201871,76
2026-04-18T19:10:48.097,2,375,250063,201871,76
2026-04-18T19:10:48.107,2,376,250082,201867,76
2026-04-18T19:10:48.117,2,377,250082,201867,76
2026-04-18T19:10:48.127,2,378,250082,201867,76
2026-04-18T19:10:48.137,2,379,250082,201867,76
2026-04-18T19:10:48.147,2,380,250064,201872,76
2026-04-18T19:10:48.157,2,381,250064,201872,76
2026-04-18T19:10:48.167,2,382,250064,201872,76
2026-04-18T19:10:48.177,2,383,250064,201872,76
2026-04-18T19:10:48.187,2,384,250068,201863,76
2026-04-18T19:10:48.197,2,385,250068,201863,76
2026-04-18T19:10:48.207,2,386,250068,201863,76
2026-04-18T19:10:48.217,2,387,250068,201863,76
2026-04-18T19:10:48.227,2,388,250055,201890,76
2026-04-18T19:10:48.237,2,389,250055,201890,76
2026-04-18T19:10:48.247,2,390,250055,201890,76
2026-04-18T19:10:48.257,2,391,250055,201890,76
2026-04-18T19:10:48.267,2,392,250055,201864,76
2026-04-18T19:10:48.277,2,393,250055,201864,76
2026-04-18T19:10:48.287,2,394,250055,201864,76
2026-04-18T19:10:48.297,2,395,250055,201864,76
2026-04-18T19:10:48.307,2,396,250060,201878,76
2026-04-18T19:10:48.317,2,397,250060,201878,76
2026-04-18T19:10:48.327,2,398,250060,201878,76
2026-04-18T19:10:48.337,2,399,250060,201878,76
2026-04-18T19:10:48.347,2,400,250108,201903,76
2026-04-18T19:10:48.357,2,401,250108,201903,76
2026-04-18T19:10:48.367,2,402,250108,201903,76
2026-04-18T19:10:48.377,2,403,250108,201903,76
2026-04-18T19:10:48.386,2,404,250101,201909,76
2026-04-18T19:10:48.397,2,405,250101,201909,76
2026-04-18T19:10:48.406,2,406,250101,201909,76
2026-04-18T19:10:48.416,2,407,250101,201909,76
2026-04-18T19:10:48.426,2,408,250127,201890,76
2026-04-18T19:10:48.436,2,409,250127,201890,76
2026-04-18T19:10:48.446,2,410,250127,201890,76
2026-04-18T19:10:48.456,2,411,250127,201890,76
2026-04-18T19:10:48.466,2,412,250129,201917,76
2026-04-18T19:10:48.476,2,413,250129,201917,76
2026-04-18T19:10:48.486,2,414,250129,201917,76
2026-04-18T19:10:48.496,2,415,250129,201917,76
2026-04-18T19:10:48.506,2,416,250137,201903,76
2026-04-18T19:10:48.516,2,417,250137,201903,76
2026-04-18T19:10:48.526,2,418,250137,201903,76
2026-04-18T19:10:48.536,2,419,250137,201903,76
2026-04-18T19:10:48.546,2,420,250127,201898,76
2026-04-18T19:10:48.556,2,421,250127,201898,76
2026-04-18T19:10:48.566,2,422,250127,201898,76
2026-04-18T19:10:48.576,2,423,250127,201898,76
2026-04-18T19:10:48.586,2,424,250175,201912,76
2026-04-18T19:10:48.596,2,425,250175,201912,76
2026-04-18T19:10:48.606,2,426,250175,201912,76
2026-04-18T19:10:48.616,2,427,250175,201912,76
2026-04-18T19:10:48.626,2,428,250205,201873,76
2026-04-18T19:10:48.636,2,429,250205,201873,76
2026-04-18T19:10:48.646,2,430,250205,201873,76
2026-04-18T19:10:48.657,2,431,250205,201873,76
2026-04-18T19:10:48.666,2,432,250196,201878,76
2026-04-18T19:10:48.676,2,433,250196,201878,76
2026-04-18T19:10:48.686,2,434,250196,201878,76
2026-04-18T19:10:48.696,2,435,250196,201878,76
2026-04-18T19:10:48.706,2,436,250188,201880,76
2026-04-18T19:10:48.716,2,437,250188,201880,76
2026-04-18T19:10:48.726,2,438,250188,201880,76
2026-04-18T19:10:48.736,2,439,250188,201880,76
2026-04-18T19:10:48.746,2,440,250235,201881,76
2026-04-18T19:10:48.756,2,441,250235,201881,76
2026-04-18T19:10:48.766,2,442,250235,201881,76
2026-04-18T19:10:48.776,2,443,250235,201881,76
2026-04-18T19:10:48.786,2,444,250186,201891,76
2026-04-18T19:10:48.796,2,445,250186,201891,76
2026-04-18T19:10:48.806,2,446,250186,201891,76
2026-04-18T19:10:48.816,2,447,250186,201891,76
2026-04-18T19:10:48.826,2,448,250220,201915,76
2026-04-18T19:10:48.836,2,449,250220,201915,76
2026-04-18T19:10:48.846,2,450,250220,201915,76
2026-04-18T19:10:48.856,2,451,250220,201915,76
2026-04-18T19:10:48.866,2,452,250202,201911,76
2026-04-18T19:10:48.876,2,453,250202,201911,76
2026-04-18T19:10:48.886,2,454,250202,201911,76
2026-04-18T19:10:48.896,2,455,250202,201911,76
2026-04-18T19:10:48.906,2,456,250173,201901,76
2026-04-18T19:10:48.916,2,457,250173,201901,76
2026-04-18T19:10:48.926,2,458,250173,201901,76
2026-04-18T19:10:48.936,2,459,250173,201901,76
2026-04-18T19:10:48.946,2,460,250200,201886,76
2026-04-18T19:10:48.956,2,461,250200,201886,76
2026-04-18T19:10:48.966,2,462,250200,201886,76
2026-04-18T19:10:48.976,2,463,250200,201886,76
2026-04-18T19:10:48.985,2,464,250157,201873,76
2026-04-18T19:10:48.996,2,465,250157,201873,76
2026-04-18T19:10:49.006,2,466,250157,201873,76
2026-04-18T19:10:49.016,2,467,250157,201873,76
2026-04-18T19:10:49.026,2,468,250140,201876,76
2026-04-18T19:10:49.036,2,469,250140,201876,76
2026-04-18T19:10:49.046,2,470,250140,201876,76
2026-04-18T19:10:49.056,2,471,250140,201876,76
2026-04-18T19:10:49.065,2,472,250189,201876,76
2026-04-18T19:10:49.075,2,473,250189,201876,76
2026-04-18T19:10:49.085,2,474,250189,201876,76
2026-04-18T19:10:49.096,2,475,250189,201876,76
2026-04-18T19:10:49.105,2,476,250187,201878,76
2026-04-18T19:10:49.115,2,477,250187,201878,76
2026-04-18T19:10:49.125,2,478,250187,201878,76
2026-04-18T19:10:49.135,2,479,250187,201878,76
2026-04-18T19:10:49.145,2,480,250159,201855,76
2026-04-18T19:10:49.156,2,481,250159,201855,76
2026-04-18T19:10:49.165,2,482,250159,201855,76
2026-04-18T19:10:49.175,2,483,250159,201855,76
2026-04-18T19:10:49.186,2,484,250119,201847,76
2026-04-18T19:10:49.195,2,485,250119,201847,76
2026-04-18T19:10:49.205,2,486,250119,201847,76
2026-04-18T19:10:49.215,2,487,250119,201847,76
2026-04-18T19:10:49.225,2,488,250103,201815,76
2026-04-18T19:10:49.235,2,489,250103,201815,76
2026-04-18T19:10:49.245,2,490,250103,201815,76
2026-04-18T19:10:49.255,2,491,250103,201815,76
2026-04-18T19:10:49.265,2,492,250089,201823,76
2026-04-18T19:10:49.275,2,493,250089,201823,76
2026-04-18T19:10:49.285,2,494,250089,201823,76
2026-04-18T19:10:49.295,2,495,250089,201823,76
2026-04-18T19:10:49.305,2,496,250050,201732,76
2026-04-18T19:10:49.316,2,497,250050,201732,76
2026-04-18T19:10:49.326,2,498,250050,201732,76
2026-04-18T19:10:49.335,2,499,250050,201732,76
2026-04-18T19:10:49.345,2,500,249955,201650,76
2026-04-18T19:10:49.356,2,501,249955,201650,76
2026-04-18T19:10:49.366,2,502,249955,201650,76
2026-04-18T19:10:49.376,2,503,249955,201650,76
2026-04-18T19:10:49.385,2,504,249752,201459,76
2026-04-18T19:10:49.395,2,505,249752,201459,76
2026-04-18T19:10:49.405,2,506,249752,201459,76
2026-04-18T19:10:49.416,2,507,249752,201459,76
2026-04-18T19:10:49.426,2,508,249618,201335,76
2026-04-18T19:10:49.435,2,509,249618,201335,76
2026-04-18T19:10:49.445,2,510,249618,201335,76
2026-04-18T19:10:49.456,2,511,249618,201335,76
2026-04-18T19:10:49.465,2,512,249550,201271,76
2026-04-18T19:10:49.475,2,513,249550,201271,76
2026-04-18T19:10:49.485,2,514,249550,201271,76
2026-04-18T19:10:49.495,2,515,249550,201271,76
2026-04-18T19:10:49.505,2,516,249449,201160,76
2026-04-18T19:10:49.515,2,517,249449,201160,76
2026-04-18T19:10:49.525,2,518,249449,201160,76
2026-04-18T19:10:49.535,2,519,249449,201160,76
2026-04-18T19:10:49.545,2,520,249334,201107,76
2026-04-18T19:10:49.555,2,521,249334,201107,76
2026-04-18T19:10:49.565,2,522,249334,201107,76
2026-04-18T19:10:49.575,2,523,249334,201107,76
2026-04-18T19:10:49.586,2,524,249305,201053,76
2026-04-18T19:10:49.595,2,525,249305,201053,76
2026-04-18T19:10:49.605,2,526,249305,201053,76
2026-04-18T19:10:49.615,2,527,249305,201053,76
2026-04-18T19:10:49.625,2,528,249246,200988,76
2026-04-18T19:10:49.635,2,529,249246,200988,76
2026-04-18T19:10:49.645,2,530,249246,200988,76
2026-04-18T19:10:49.655,2,531,249246,200988,76
2026-04-18T19:10:49.665,2,532,249165,200946,76
2026-04-18T19:10:49.675,2,533,249165,200946,76
2026-04-18T19:10:49.685,2,534,249165,200946,76
2026-04-18T19:10:49.695,2,535,249165,200946,76
2026-04-18T19:10:49.705,2,536,249053,200862,76
2026-04-18T19:10:49.715,2,537,249053,200862,76
2026-04-18T19:10:49.725,2,538,249053,200862,76
2026-04-18T19:10:49.735,2,539,249053,200862,76
2026-04-18T19:10:49.745,2,540,248938,200743,76
2026-04-18T19:10:49.755,2,541,248938,200743,76
2026-04-18T19:10:49.765,2,542,248938,200743,76
2026-04-18T19:10:49.775,2,543,248938,200743,76
2026-04-18T19:10:49.785,2,544,248842,200646,76
2026-04-18T19:10:49.795,2,545,248842,200646,76
2026-04-18T19:10:49.805,2,546,248842,200646,76
2026-04-18T19:10:49.815,2,547,248842,200646,76
2026-04-18T19:10:49.825,2,548,248716,200531,76
2026-04-18T19:10:49.835,2,549,248716,200531,76
2026-04-18T19:10:49.845,2,550,248716,200531,76
2026-04-18T19:10:49.855,2,551,248716,200531,76
2026-04-18T19:10:49.865,2,552,248594,200455,76
2026-04-18T19:10:49.875,2,553,248594,200455,76
2026-04-18T19:10:49.885,2,554,248594,200455,76
2026-04-18T19:10:49.895,2,555,248594,200455,76
2026-04-18T19:10:49.905,2,556,248462,200352,76
2026-04-18T19:10:49.915,2,557,248462,200352,76
2026-04-18T19:10:49.925,2,558,248462,200352,76
2026-04-18T19:10:49.935,2,559,248462,200352,76
2026-04-18T19:10:49.945,2,560,248335,200292,76
2026-04-18T19:10:49.955,2,561,248335,200292,76
2026-04-18T19:10:49.965,2,562,248335,200292,76
2026-04-18T19:10:49.975,2,563,248335,200292,76
2026-04-18T19:10:49.985,2,564,248259,200241,76
2026-04-18T19:10:49.995,2,565,248259,200241,76
2026-04-18T19:10:50.005,2,566,248259,200241,76
2026-04-18T19:10:50.015,2,567,248259,200241,76
2026-04-18T19:10:50.025,2,568,248162,200214,76
2026-04-18T19:10:50.035,2,569,248162,200214,76
2026-04-18T19:10:50.045,2,570,248162,200214,76
2026-04-18T19:10:50.055,2,571,248162,200214,76
2026-04-18T19:10:50.064,2,572,248102,200145,76
2026-04-18T19:10:50.074,2,573,248102,200145,76
2026-04-18T19:10:50.085,2,574,248102,200145,76
2026-04-18T19:10:50.095,2,575,248102,200145,76
2026-04-18T19:10:50.104,2,576,248058,200128,76
2026-04-18T19:10:50.115,2,577,248058,200128,76
2026-04-18T19:10:50.124,2,578,248058,200128,76
2026-04-18T19:10:50.134,2,579,248058,200128,76
2026-04-18T19:10:50.145,2,580,248063,200150,76
2026-04-18T19:10:50.154,2,581,248063,200150,76
2026-04-18T19:10:50.165,2,582,248063,200150,76
2026-04-18T19:10:50.175,2,583,248063,200150,76
2026-04-18T19:10:50.185,2,584,248093,200167,76
2026-04-18T19:10:50.194,2,585,248093,200167,76
2026-04-18T19:10:50.205,2,586,248093,200167,76
2026-04-18T19:10:50.215,2,587,248093,200167,76
2026-04-18T19:10:50.224,2,588,248126,200184,76
2026-04-18T19:10:50.234,2,589,248126,200184,76
2026-04-18T19:10:50.244,2,590,248126,200184,76
2026-04-18T19:10:50.254,2,591,248126,200184,76
2026-04-18T19:10:50.264,2,592,248111,200188,76
2026-04-18T19:10:50.274,2,593,248111,200188,76
2026-04-18T19:10:50.284,2,594,248111,200188,76
2026-04-18T19:10:50.294,2,595,248111,200188,76
2026-04-18T19:10:50.304,2,596,248107,200149,76
2026-04-18T19:10:50.315,2,597,248107,200149,76
2026-04-18T19:10:50.324,2,598,248107,200149,76
2026-04-18T19:10:50.334,2,599,248107,200149,76
2026-04-18T19:10:50.345,2,600,248075,200164,76
2026-04-18T19:10:50.354,2,601,248075,200164,76
2026-04-18T19:10:50.364,2,602,248075,200164,76
2026-04-18T19:10:50.374,2,603,248075,200164,76
2026-04-18T19:10:50.384,2,604,248114,200141,76
2026-04-18T19:10:50.394,2,605,248114,200141,76
2026-04-18T19:10:50.404,2,606,248114,200141,76
2026-04-18T19:10:50.414,2,607,248114,200141,76
2026-04-18T19:10:50.424,2,608,248072,200121,76
2026-04-18T19:10:50.435,2,609,248072,200121,76
2026-04-18T19:10:50.444,2,610,248072,200121,76
2026-04-18T19:10:50.454,2,611,248072,200121,76
2026-04-18T19:10:50.464,2,612,248040,200119,76
2026-04-18T19:10:50.474,2,613,248040,200119,76
2026-04-18T19:10:50.484,2,614,248040,200119,76
2026-04-18T19:10:50.494,2,615,248040,200119,76
2026-04-18T19:10:50.504,2,616,248004,200074,76
2026-04-18T19:10:50.514,2,617,248004,200074,76
2026-04-18T19:10:50.524,2,618,248004,200074,76
2026-04-18T19:10:50.533,2,619,248004,200074,76
2026-04-18T19:10:50.544,2,620,247954,200030,76
2026-04-18T19:10:50.553,2,621,247954,200030,76
2026-04-18T19:10:50.564,2,622,247954,200030,76
2026-04-18T19:10:50.574,2,623,247954,200030,76
2026-04-18T19:10:50.584,2,624,247803,199946,76
2026-04-18T19:10:50.594,2,625,247803,199946,76
2026-04-18T19:10:50.604,2,626,247803,199946,76
2026-04-18T19:10:50.614,2,627,247803,199946,76
2026-04-18T19:10:50.624,2,628,247696,199857,76
2026-04-18T19:10:50.634,2,629,247696,199857,76
2026-04-18T19:10:50.644,2,630,247696,199857,76
2026-04-18T19:10:50.654,2,631,247696,199857,76
2026-04-18T19:10:50.664,2,632,247570,199788,76
2026-04-18T19:10:50.674,2,633,247570,199788,76
2026-04-18T19:10:50.684,2,634,247570,199788,76
2026-04-18T19:10:50.694,2,635,247570,199788,76
2026-04-18T19:10:50.704,2,636,247401,199708,76
2026-04-18T19:10:50.714,2,637,247401,199708,76
2026-04-18T19:10:50.724,2,638,247401,199708,76
2026-04-18T19:10:50.734,2,639,247401,199708,76
2026-04-18T19:10:50.744,2,640,247114,199561,76
2026-04-18T19:10:50.754,2,641,247114,199561,76
2026-04-18T19:10:50.764,2,642,247114,199561,76
2026-04-18T19:10:50.774,2,643,247114,199561,76
2026-04-18T19:10:50.783,2,644,246752,199377,76
2026-04-18T19:10:50.793,2,645,246752,199377,76
2026-04-18T19:10:50.804,2,646,246752,199377,76
2026-04-18T19:10:50.813,2,647,246752,199377,76
2026-04-18T19:10:50.824,2,648,246517,199214,76
2026-04-18T19:10:50.834,2,649,246517,199214,76
2026-04-18T19:10:50.844,2,650,246517,199214,76
2026-04-18T19:10:50.854,2,651,246517,199214,76
2026-04-18T19:10:50.864,2,652,246337,199140,76
2026-04-18T19:10:50.874,2,653,246337,199140,76
2026-04-18T19:10:50.884,2,654,246337,199140,76
2026-04-18T19:10:50.894,2,655,246337,199140,76
2026-04-18T19:10:50.903,2,656,246215,199072,76
2026-04-18T19:10:50.914,2,657,246215,199072,76
2026-04-18T19:10:50.924,2,658,246215,199072,76
2026-04-18T19:10:50.934,2,659,246215,199072,76
2026-04-18T19:10:50.943,2,660,246146,199072,76
2026-04-18T19:10:50.954,2,661,246146,199072,76
2026-04-18T19:10:50.963,2,662,246146,199072,76
2026-04-18T19:10:50.974,2,663,246146,199072,76
2026-04-18T19:10:50.984,2,664,246108,199038,76
2026-04-18T19:10:50.994,2,665,246108,199038,76
2026-04-18T19:10:51.003,2,666,246108,199038,76
2026-04-18T19:10:51.014,2,667,246108,199038,76
2026-04-18T19:10:51.024,2,668,246112,199060,76
2026-04-18T19:10:51.033,2,669,246112,199060,76
2026-04-18T19:10:51.043,2,670,246112,199060,76
2026-04-18T19:10:51.054,2,671,246112,199060,76
2026-04-18T19:10:51.064,2,672,246091,199044,76
2026-04-18T19:10:51.074,2,673,246091,199044,76
2026-04-18T19:10:51.083,2,674,246091,199044,76
2026-04-18T19:10:51.094,2,675,246091,199044,76
2026-04-18T19:10:51.104,2,676,246073,199043,76
2026-04-18T19:10:51.113,2,677,246073,199043,76
2026-04-18T19:10:51.124,2,678,246073,199043,76
2026-04-18T19:10:51.133,2,679,246073,199043,76
2026-04-18T19:10:51.143,2,680,246135,199058,76
2026-04-18T19:10:51.153,2,681,246135,199058,76
2026-04-18T19:10:51.164,2,682,246135,199058,76
2026-04-18T19:10:51.174,2,683,246135,199058,76
2026-04-18T19:10:51.183,2,684,246129,199047,76
2026-04-18T19:10:51.193,2,685,246129,199047,76
2026-04-18T19:10:51.203,2,686,246129,199047,76
2026-04-18T19:10:51.213,2,687,246129,199047,76
2026-04-18T19:10:51.223,2,688,246142,199044,76
2026-04-18T19:10:51.233,2,689,246142,199044,76
2026-04-18T19:10:51.244,2,690,246142,199044,76
2026-04-18T19:10:51.253,2,691,246142,199044,76
2026-04-18T19:10:51.263,2,692,246123,199066,76
2026-04-18T19:10:51.273,2,693,246123,199066,76
2026-04-18T19:10:51.283,2,694,246123,199066,76
2026-04-18T19:10:51.293,2,695,246123,199066,76
2026-04-18T19:10:51.303,2,696,246138,199076,76
2026-04-18T19:10:51.313,2,697,246138,199076,76
2026-04-18T19:10:51.323,2,698,246138,199076,76
2026-04-18T19:10:51.333,2,699,246138,199076,76
2026-04-18T19:10:51.343,2,700,246170,199113,76
2026-04-18T19:10:51.353,2,701,246170,199113,76
2026-04-18T19:10:51.363,2,702,246170,199113,76
2026-04-18T19:10:51.373,2,703,246170,199113,76
2026-04-18T19:10:51.383,2,704,246186,199115,76
2026-04-18T19:10:51.393,2,705,246186,199115,76
2026-04-18T19:10:51.403,2,706,246186,199115,76
2026-04-18T19:10:51.413,2,707,246186,199115,76
2026-04-18T19:10:51.423,2,708,246261,199148,76
2026-04-18T19:10:51.433,2,709,246261,199148,76
2026-04-18T19:10:51.443,2,710,246261,199148,76
2026-04-18T19:10:51.453,2,711,246261,199148,76
2026-04-18T19:10:51.463,2,712,246359,199208,76
2026-04-18T19:10:51.472,2,713,246359,199208,76
2026-04-18T19:10:51.482,2,714,246359,199208,76
2026-04-18T19:10:51.493,2,715,246359,199208,76
2026-04-18T19:10:51.502,2,716,246399,199285,76
2026-04-18T19:10:51.512,2,717,246399,199285,76
2026-04-18T19:10:51.522,2,718,246399,199285,76
2026-04-18T19:10:51.532,2,719,246399,199285,76
2026-04-18T19:10:51.543,2,720,246437,199294,76
2026-04-18T19:10:51.553,2,721,246437,199294,76
2026-04-18T19:10:51.563,2,722,246437,199294,76
2026-04-18T19:10:51.573,2,723,246437,199294,76
2026-04-18T19:10:51.583,2,724,246459,199324,76
2026-04-18T19:10:51.593,2,725,246459,199324,76
2026-04-18T19:10:51.603,2,726,246459,199324,76
2026-04-18T19:10:51.613,2,727,246459,199324,76
2026-04-18T19:10:51.623,2,728,246516,199342,76
2026-04-18T19:10:51.633,2,729,246516,199342,76
2026-04-18T19:10:51.643,2,730,246516,199342,76
2026-04-18T19:10:51.653,2,731,246516,199342,76
2026-04-18T19:10:51.663,2,732,246610,199372,76
2026-04-18T19:10:51.673,2,733,246610,199372,76
2026-04-18T19:10:51.683,2,734,246610,199372,76
2026-04-18T19:10:51.693,2,735,246610,199372,76
2026-04-18T19:10:51.703,2,736,246661,199437,76
2026-04-18T19:10:51.712,2,737,246661,199437,76
2026-04-18T19:10:51.723,2,738,246661,199437,76
2026-04-18T19:10:51.733,2,739,246661,199437,76
2026-04-18T19:10:51.743,2,740,246803,199522,76
2026-04-18T19:10:51.753,2,741,246803,199522,76
2026-04-18T19:10:51.763,2,742,246803,199522,76
2026-04-18T19:10:51.773,2,743,246803,199522,76
2026-04-18T19:10:51.783,2,744,246921,199589,76
2026-04-18T19:10:51.793,2,745,246921,199589,76
2026-04-18T19:10:51.802,2,746,246921,199589,76
2026-04-18T19:10:51.812,2,747,246921,199589,76
2026-04-18T19:10:51.822,2,748,247149,199706,76
2026-04-18T19:10:51.832,2,749,247149,199706,76
2026-04-18T19:10:51.842,2,750,247149,199706,76
2026-04-18T19:10:51.853,2,751,247149,199706,76
2026-04-18T19:10:51.863,2,752,247332,199909,76
2026-04-18T19:10:51.873,2,753,247332,199909,76
2026-04-18T19:10:51.883,2,754,247332,199909,76
2026-04-18T19:10:51.892,2,755,247332,199909,76
2026-04-18T19:10:51.902,2,756,247536,200061,76
2026-04-18T19:10:51.913,2,757,247536,200061,76
2026-04-18T19:10:51.923,2,758,247536,200061,76
2026-04-18T19:10:51.932,2,759,247536,200061,76
2026-04-18T19:10:51.942,2,760,247813,200300,76
2026-04-18T19:10:51.952,2,761,247813,200300,76
2026-04-18T19:10:51.962,2,762,247813,200300,76
2026-04-18T19:10:51.972,2,763,247813,200300,76
2026-04-18T19:10:51.982,2,764,248095,200470,76
2026-04-18T19:10:51.992,2,765,248095,200470,76
2026-04-18T19:10:52.002,2,766,248095,200470,76
2026-04-18T19:10:52.012,2,767,248095,200470,76
2026-04-18T19:10:52.022,2,768,248265,200635,76
2026-04-18T19:10:52.032,2,769,248265,200635,76
2026-04-18T19:10:52.042,2,770,248265,200635,76
2026-04-18T19:10:52.052,2,771,248265,200635,76
2026-04-18T19:10:52.062,2,772,248460,200788,76
2026-04-18T19:10:52.072,2,773,248460,200788,76
2026-04-18T19:10:52.082,2,774,248460,200788,76
2026-04-18T19:10:52.092,2,775,248460,200788,76
2026-04-18T19:10:52.102,2,776,248606,200947,76
2026-04-18T19:10:52.112,2,777,248606,200947,76
2026-04-18T19:10:52.122,2,778,248606,200947,76
2026-04-18T19:10:52.132,2,779,248606,200947,76
2026-04-18T19:10:52.142,2,780,248799,201082,76
2026-04-18T19:10:52.152,2,781,248799,201082,76
2026-04-18T19:10:52.162,2,782,248799,201082,76
2026-04-18T19:10:52.172,2,783,248799,201082,76
2026-04-18T19:10:52.182,2,784,248939,201208,76
2026-04-18T19:10:52.192,2,785,248939,201208,76
2026-04-18T19:10:52.202,2,786,248939,201208,76
2026-04-18T19:10:52.212,2,787,248939,201208,76
2026-04-18T19:10:52.222,2,788,249098,201349,76
2026-04-18T19:10:52.232,2,789,249098,201349,76
2026-04-18T19:10:52.242,2,790,249098,201349,76
2026-04-18T19:10:52.252,2,791,249098,201349,76
2026-04-18T19:10:52.262,2,792,249211,201441,76
2026-04-18T19:10:52.272,2,793,249211,201441,76
2026-04-18T19:10:52.282,2,794,249211,201441,76
2026-04-18T19:10:52.292,2,795,249211,201441,76
2026-04-18T19:10:52.302,2,796,249330,201555,76
2026-04-18T19:10:52.312,2,797,249330,201555,76
2026-04-18T19:10:52.322,2,798,249330,201555,76
2026-04-18T19:10:52.332,2,799,249330,201555,76
2026-04-18T19:10:52.341,2,800,249421,201648,76
2026-04-18T19:10:52.351,2,801,249421,201648,76
2026-04-18T19:10:52.361,2,802,249421,201648,76
2026-04-18T19:10:52.372,2,803,249421,201648,76
2026-04-18T19:10:52.382,2,804,249502,201703,76
2026-04-18T19:10:52.392,2,805,249502,201703,76
2026-04-18T19:10:52.402,2,806,249502,201703,76
2026-04-18T19:10:52.412,2,807,249502,201703,76
2026-04-18T19:10:52.422,2,808,249616,201767,76
2026-04-18T19:10:52.432,2,809,249616,201767,76
2026-04-18T19:10:52.442,2,810,249616,201767,76
2026-04-18T19:10:52.451,2,811,249616,201767,76
2026-04-18T19:10:52.462,2,812,249649,201842,76
2026-04-18T19:10:52.472,2,813,249649,201842,76
2026-04-18T19:10:52.482,2,814,249649,201842,76
2026-04-18T19:10:52.492,2,815,249649,201842,76
2026-04-18T19:10:52.502,2,816,249694,201865,76
2026-04-18T19:10:52.512,2,817,249694,201865,76
2026-04-18T19:10:52.522,2,818,249694,201865,76
2026-04-18T19:10:52.531,2,819,249694,201865,76
2026-04-18T19:10:52.542,2,820,249778,201942,76
2026-04-18T19:10:52.551,2,821,249778,201942,76
2026-04-18T19:10:52.562,2,822,249778,201942,76
2026-04-18T19:10:52.572,2,823,249778,201942,76
2026-04-18T19:10:52.581,2,824,249829,201977,76
2026-04-18T19:10:52.592,2,825,249829,201977,76
2026-04-18T19:10:52.601,2,826,249829,201977,76
2026-04-18T19:10:52.611,2,827,249829,201977,76
2026-04-18T19:10:52.621,2,828,249903,202007,76
2026-04-18T19:10:52.631,2,829,249903,202007,76
2026-04-18T19:10:52.641,2,830,249903,202007,76
2026-04-18T19:10:52.651,2,831,249903,202007,76
2026-04-18T19:10:52.661,2,832,249977,202053,76
2026-04-18T19:10:52.672,2,833,249977,202053,76
2026-04-18T19:10:52.682,2,834,249977,202053,76
2026-04-18T19:10:52.692,2,835,249977,202053,76
2026-04-18T19:10:52.701,2,836,250001,202113,76
2026-04-18T19:10:52.712,2,837,250001,202113,76
2026-04-18T19:10:52.722,2,838,250001,202113,76
2026-04-18T19:10:52.732,2,839,250001,202113,76
2026-04-18T19:10:52.741,2,840,250054,202121,76
2026-04-18T19:10:52.751,2,841,250054,202121,76
2026-04-18T19:10:52.762,2,842,250054,202121,76
2026-04-18T19:10:52.772,2,843,250054,202121,76
2026-04-18T19:10:52.781,2,844,250047,202141,76
2026-04-18T19:10:52.791,2,845,250047,202141,76
2026-04-18T19:10:52.801,2,846,250047,202141,76
2026-04-18T19:10:52.811,2,847,250047,202141,76
2026-04-18T19:10:52.822,2,848,250105,202182,76
2026-04-18T19:10:52.831,2,849,250105,202182,76
2026-04-18T19:10:52.841,2,850,250105,202182,76
2026-04-18T19:10:52.851,2,851,250105,202182,76
2026-04-18T19:10:52.861,2,852,250114,202219,76
2026-04-18T19:10:52.872,2,853,250114,202219,76
2026-04-18T19:10:52.881,2,854,250114,202219,76
2026-04-18T19:10:52.891,2,855,250114,202219,76
2026-04-18T19:10:52.902,2,856,250136,202201,76
2026-04-18T19:10:52.911,2,857,250136,202201,76
2026-04-18T19:10:52.922,2,858,250136,202201,76
2026-04-18T19:10:52.931,2,859,250136,202201,76
2026-04-18T19:10:52.941,2,860,250149,202206,76
2026-04-18T19:10:52.951,2,861,250149,202206,76
2026-04-18T19:10:52.961,2,862,250149,202206,76
2026-04-18T19:10:52.972,2,863,250149,202206,76
2026-04-18T19:10:52.981,2,864,250195,202228,76
2026-04-18T19:10:52.991,2,865,250195,202228,76
2026-04-18T19:10:53.001,2,866,250195,202228,76
2026-04-18T19:10:53.012,2,867,250195,202228,76
2026-04-18T19:10:53.021,2,868,250194,202231,76
2026-04-18T19:10:53.031,2,869,250194,202231,76
2026-04-18T19:10:53.041,2,870,250194,202231,76
2026-04-18T19:10:53.051,2,871,250194,202231,76
2026-04-18T19:10:53.061,2,872,250213,202252,76
2026-04-18T19:10:53.071,2,873,250213,202252,76
2026-04-18T19:10:53.081,2,874,250213,202252,76
2026-04-18T19:10:53.091,2,875,250213,202252,76
2026-04-18T19:10:53.101,2,876,250247,202270,76
2026-04-18T19:10:53.111,2,877,250247,202270,76
2026-04-18T19:10:53.121,2,878,250247,202270,76
2026-04-18T19:10:53.131,2,879,250247,202270,76
2026-04-18T19:10:53.141,2,880,250258,202312,76
2026-04-18T19:10:53.151,2,881,250258,202312,76
2026-04-18T19:10:53.161,2,882,250258,202312,76
2026-04-18T19:10:53.171,2,883,250258,202312,76
2026-04-18T19:10:53.181,2,884,250275,202296,76
2026-04-18T19:10:53.191,2,885,250275,202296,76
2026-04-18T19:10:53.201,2,886,250275,202296,76
2026-04-18T19:10:53.211,2,887,250275,202296,76
2026-04-18T19:10:53.221,2,888,250292,202330,76
2026-04-18T19:10:53.231,2,889,250292,202330,76
2026-04-18T19:10:53.241,2,890,250292,202330,76
2026-04-18T19:10:53.251,2,891,250292,202330,76
2026-04-18T19:10:53.261,2,892,250306,202350,76
2026-04-18T19:10:53.271,2,893,250306,202350,76
2026-04-18T19:10:53.281,2,894,250306,202350,76
2026-04-18T19:10:53.291,2,895,250306,202350,76
2026-04-18T19:10:53.301,2,896,250408,202405,76
2026-04-18T19:10:53.311,2,897,250408,202405,76
2026-04-18T19:10:53.321,2,898,250408,202405,76
2026-04-18T19:10:53.331,2,899,250408,202405,76
2026-04-18T19:10:53.341,2,900,250457,202465,76
2026-04-18T19:10:53.351,2,901,250457,202465,76
2026-04-18T19:10:53.361,2,902,250457,202465,76
2026-04-18T19:10:53.370,2,903,250457,202465,76
2026-04-18T19:10:53.380,2,904,250536,202512,76
2026-04-18T19:10:53.391,2,905,250536,202512,76
2026-04-18T19:10:53.401,2,906,250536,202512,76
2026-04-18T19:10:53.411,2,907,250536,202512,76
2026-04-18T19:10:53.421,2,908,250597,202548,76
2026-04-18T19:10:53.431,2,909,250597,202548,76
2026-04-18T19:10:53.441,2,910,250597,202548,76
2026-04-18T19:10:53.451,2,911,250597,202548,76
2026-04-18T19:10:53.461,2,912,250604,202654,76
2026-04-18T19:10:53.470,2,913,250604,202654,76
2026-04-18T19:10:53.481,2,914,250604,202654,76
2026-04-18T19:10:53.490,2,915,250604,202654,76
2026-04-18T19:10:53.500,2,916,250634,202733,76
2026-04-18T19:10:53.510,2,917,250634,202733,76
2026-04-18T19:10:53.520,2,918,250634,202733,76
2026-04-18T19:10:53.530,2,919,250634,202733,76
2026-04-18T19:10:53.540,2,920,250611,202735,76
2026-04-18T19:10:53.550,2,921,250611,202735,76
2026-04-18T19:10:53.560,2,922,250611,202735,76
2026-04-18T19:10:53.570,2,923,250611,202735,76
2026-04-18T19:10:53.580,2,924,250596,202833,76
2026-04-18T19:10:53.590,2,925,250596,202833,76
2026-04-18T19:10:53.600,2,926,250596,202833,76
2026-04-18T19:10:53.610,2,927,250596,202833,76
2026-04-18T19:10:53.620,2,928,250597,202885,76
2026-04-18T19:10:53.631,2,929,250597,202885,76
2026-04-18T19:10:53.640,2,930,250597,202885,76
2026-04-18T19:10:53.651,2,931,250597,202885,76
2026-04-18T19:10:53.660,2,932,250547,202932,76
2026-04-18T19:10:53.671,2,933,250547,202932,76
2026-04-18T19:10:53.680,2,934,250547,202932,76
2026-04-18T19:10:53.690,2,935,250547,202932,76
2026-04-18T19:10:53.700,2,936,250532,202960,76
2026-04-18T19:10:53.711,2,937,250532,202960,76
2026-04-18T19:10:53.720,2,938,250532,202960,76
2026-04-18T19:10:53.731,2,939,250532,202960,76
2026-04-18T19:10:53.740,2,940,250481,202965,76
2026-04-18T19:10:53.750,2,941,250481,202965,76
2026-04-18T19:10:53.760,2,942,250481,202965,76
2026-04-18T19:10:53.770,2,943,250481,202965,76
2026-04-18T19:10:53.780,2,944,250386,202902,76
2026-04-18T19:10:53.790,2,945,250386,202902,76
2026-04-18T19:10:53.801,2,946,250386,202902,76
2026-04-18T19:10:53.810,2,947,250386,202902,76
2026-04-18T19:10:53.821,2,948,250172,202730,76
2026-04-18T19:10:53.830,2,949,250172,202730,76
2026-04-18T19:10:53.840,2,950,250172,202730,76
2026-04-18T19:10:53.850,2,951,250172,202730,76
2026-04-18T19:10:53.860,2,952,250036,202652,76
2026-04-18T19:10:53.870,2,953,250036,202652,76
2026-04-18T19:10:53.880,2,954,250036,202652,76
2026-04-18T19:10:53.890,2,955,250036,202652,76
2026-04-18T19:10:53.900,2,956,249929,202598,76
2026-04-18T19:10:53.910,2,957,249929,202598,76
2026-04-18T19:10:53.920,2,958,249929,202598,76
2026-04-18T19:10:53.930,2,959,249929,202598,76
2026-04-18T19:10:53.940,2,960,249816,202575,76
2026-04-18T19:10:53.950,2,961,249816,202575,76
2026-04-18T19:10:53.960,2,962,249816,202575,76
2026-04-18T19:10:53.970,2,963,249816,202575,76
2026-04-18T19:10:53.980,2,964,249741,202606,76
2026-04-18T19:10:53.991,2,965,249741,202606,76
2026-04-18T19:10:54.000,2,966,249741,202606,76
2026-04-18T19:10:54.010,2,967,249741,202606,76
2026-04-18T19:10:54.020,2,968,249734,202612,76
2026-04-18T19:10:54.030,2,969,249734,202612,76
2026-04-18T19:10:54.040,2,970,249734,202612,76
2026-04-18T19:10:54.050,2,971,249734,202612,76
2026-04-18T19:10:54.060,2,972,249690,202675,76
2026-04-18T19:10:54.070,2,973,249690,202675,76
2026-04-18T19:10:54.080,2,974,249690,202675,76
2026-04-18T19:10:54.090,2,975,249690,202675,76
2026-04-18T19:10:54.100,2,976,249707,202726,76
2026-04-18T19:10:54.110,2,977,249707,202726,76
2026-04-18T19:10:54.120,2,978,249707,202726,76
2026-04-18T19:10:54.130,2,979,249707,202726,76
2026-04-18T19:10:54.140,2,980,249692,202758,76
2026-04-18T19:10:54.150,2,981,249692,202758,76
2026-04-18T19:10:54.160,2,982,249692,202758,76
2026-04-18T19:10:54.170,2,983,249692,202758,76
2026-04-18T19:10:54.180,2,984,249720,202831,76
2026-04-18T19:10:54.190,2,985,249720,202831,76
2026-04-18T19:10:54.200,2,986,249720,202831,76
2026-04-18T19:10:54.210,2,987,249720,202831,76
2026-04-18T19:10:54.220,2,988,249734,202870,76
2026-04-18T19:10:54.230,2,989,249734,202870,76
2026-04-18T19:10:54.239,2,990,249734,202870,76
2026-04-18T19:10:54.250,2,991,249734,202870,76
2026-04-18T19:10:54.260,2,992,249664,202842,76
2026-04-18T19:10:54.270,2,993,249664,202842,76
2026-04-18T19:10:54.280,2,994,249664,202842,76
2026-04-18T19:10:54.289,2,995,249664,202842,76
2026-04-18T19:10:54.300,2,996,249776,202956,76
2026-04-18T19:10:54.310,2,997,249776,202956,76
2026-04-18T19:10:54.319,2,998,249776,202956,76
2026-04-18T19:10:54.329,2,999,249776,202956,76
2026-04-18T19:10:54.339,2,1000,249975,203242,76
2026-04-18T19:10:54.350,2,1001,249975,203242,76
2026-04-18T19:10:54.360,2,1002,249975,203242,76
2026-04-18T19:10:54.369,2,1003,249975,203242,76
2026-04-18T19:10:54.380,2,1004,249936,203376,76
2026-04-18T19:10:54.390,2,1005,249936,203376,76
2026-04-18T19:10:54.399,2,1006,249936,203376,76
2026-04-18T19:10:54.409,2,1007,249936,203376,76
2026-04-18T19:10:54.419,2,1008,249923,203555,76
2026-04-18T19:10:54.429,2,1009,249923,203555,76
2026-04-18T19:10:54.440,2,1010,249923,203555,76
2026-04-18T19:10:54.449,2,1011,249923,203555,76
2026-04-18T19:10:54.460,2,1012,250040,203783,76
2026-04-18T19:10:54.470,2,1013,250040,203783,76
2026-04-18T19:10:54.480,2,1014,250040,203783,76
2026-04-18T19:10:54.490,2,1015,250040,203783,76
2026-04-18T19:10:54.499,2,1016,250112,204085,76
2026-04-18T19:10:54.509,2,1017,250112,204085,76
2026-04-18T19:10:54.519,2,1018,250112,204085,76
2026-04-18T19:10:54.529,2,1019,250112,204085,76
2026-04-18T19:10:54.539,2,1020,250596,204942,76
2026-04-18T19:10:54.549,2,1021,250596,204942,76
2026-04-18T19:10:54.559,2,1022,250596,204942,76
2026-04-18T19:10:54.569,2,1023,250596,204942,76
2026-04-18T19:10:54.579,2,1024,250867,205477,76
2026-04-18T19:10:54.589,2,1025,250867,205477,76
2026-04-18T19:10:54.599,2,1026,250867,205477,76
2026-04-18T19:10:54.609,2,1027,250867,205477,76
2026-04-18T19:10:54.619,2,1028,251144,206132,76
2026-04-18T19:10:54.629,2,1029,251144,206132,76
2026-04-18T19:10:54.639,2,1030,251144,206132,76
2026-04-18T19:10:54.649,2,1031,251144,206132,76
2026-04-18T19:10:54.659,2,1032,251290,206658,76
2026-04-18T19:10:54.669,2,1033,251290,206658,76
2026-04-18T19:10:54.679,2,1034,251290,206658,76
2026-04-18T19:10:54.689,2,1035,251290,206658,76
2026-04-18T19:10:54.699,2,1036,251355,207184,76
2026-04-18T19:10:59.483,3,0,248822,202339,74
2026-04-18T19:10:59.493,3,1,248492,202243,74
2026-04-18T19:10:59.503,3,2,248492,202243,74
2026-04-18T19:10:59.513,3,3,248492,202243,74
2026-04-18T19:10:59.523,3,4,248492,202243,74
2026-04-18T19:10:59.533,3,5,248187,202119,74
2026-04-18T19:10:59.543,3,6,248187,202119,74
2026-04-18T19:10:59.553,3,7,248187,202119,74
2026-04-18T19:10:59.563,3,8,248187,202119,74
2026-04-18T19:10:59.573,3,9,248164,202531,74
2026-04-18T19:10:59.583,3,10,248164,202531,74
2026-04-18T19:10:59.593,3,11,248164,202531,74
2026-04-18T19:10:59.603,3,12,248164,202531,74
2026-04-18T19:10:59.613,3,13,248296,202957,74
2026-04-18T19:10:59.623,3,14,248296,202957,74
2026-04-18T19:10:59.633,3,15,248296,202957,74
2026-04-18T19:10:59.643,3,16,248296,202957,74
2026-04-18T19:10:59.653,3,17,248545,203031,74
2026-04-18T19:10:59.663,3,18,248545,203031,74
2026-04-18T19:10:59.673,3,19,248545,203031,74
2026-04-18T19:10:59.683,3,20,248545,203031,74
2026-04-18T19:10:59.693,3,21,248846,202895,74
2026-04-18T19:10:59.703,3,22,248846,202895,74
2026-04-18T19:10:59.713,3,23,248846,202895,74
2026-04-18T19:10:59.723,3,24,248846,202895,74
2026-04-18T19:10:59.733,3,25,249166,202714,74
2026-04-18T19:10:59.743,3,26,249166,202714,74
2026-04-18T19:10:59.754,3,27,249166,202714,74
2026-04-18T19:10:59.764,3,28,249166,202714,74
2026-04-18T19:10:59.773,3,29,249366,202265,74
2026-04-18T19:10:59.783,3,30,249366,202265,74
2026-04-18T19:10:59.793,3,31,249366,202265,74
2026-04-18T19:10:59.803,3,32,249366,202265,74
2026-04-18T19:10:59.813,3,33,249314,201835,74
2026-04-18T19:10:59.823,3,34,249314,201835,74
2026-04-18T19:10:59.833,3,35,249314,201835,74
2026-04-18T19:10:59.843,3,36,249314,201835,74
2026-04-18T19:10:59.853,3,37,249394,201636,74
2026-04-18T19:10:59.863,3,38,249394,201636,74
2026-04-18T19:10:59.873,3,39,249394,201636,74
2026-04-18T19:10:59.883,3,40,249394,201636,74
2026-04-18T19:10:59.893,3,41,249386,201446,74
2026-04-18T19:10:59.903,3,42,249386,201446,74
2026-04-18T19:10:59.913,3,43,249386,201446,74
2026-04-18T19:10:59.923,3,44,249386,201446,74
2026-04-18T19:10:59.933,3,45,249356,201255,74
2026-04-18T19:10:59.943,3,46,249356,201255,74
2026-04-18T19:10:59.953,3,47,249356,201255,74
2026-04-18T19:10:59.963,3,48,249356,201255,74
2026-04-18T19:10:59.973,3,49,249363,201204,74
2026-04-18T19:10:59.983,3,50,249363,201204,74
2026-04-18T19:10:59.993,3,51,249363,201204,74
2026-04-18T19:11:00.003,3,52,249363,201204,74
2026-04-18T19:11:00.013,3,53,249331,200987,74
2026-04-18T19:11:00.023,3,54,249331,200987,74
2026-04-18T19:11:00.033,3,55,249331,200987,74
2026-04-18T19:11:00.043,3,56,249331,200987,74
2026-04-18T19:11:00.053,3,57,249322,200797,74
2026-04-18T19:11:00.063,3,58,249322,200797,74
2026-04-18T19:11:00.073,3,59,249322,200797,74
2026-04-18T19:11:00.082,3,60,249322,200797,74
2026-04-18T19:11:00.093,3,61,249409,200804,74
2026-04-18T19:11:00.103,3,62,249409,200804,74
2026-04-18T19:11:00.113,3,63,249409,200804,74
2026-04-18T19:11:00.122,3,64,249409,200804,74
2026-04-18T19:11:00.133,3,65,249431,200732,74
2026-04-18T19:11:00.142,3,66,249431,200732,74
2026-04-18T19:11:00.152,3,67,249431,200732,74
2026-04-18T19:11:00.162,3,68,249431,200732,74
2026-04-18T19:11:00.172,3,69,249491,200781,74
2026-04-18T19:11:00.182,3,70,249491,200781,74
2026-04-18T19:11:00.192,3,71,249491,200781,74
2026-04-18T19:11:00.202,3,72,249491,200781,74
2026-04-18T19:11:00.212,3,73,249490,200750,74
2026-04-18T19:11:00.222,3,74,249490,200750,74
2026-04-18T19:11:00.232,3,75,249490,200750,74
2026-04-18T19:11:00.243,3,76,249490,200750,74
2026-04-18T19:11:00.253,3,77,249568,200802,74
2026-04-18T19:11:00.263,3,78,249568,200802,74
2026-04-18T19:11:00.272,3,79,249568,200802,74
2026-04-18T19:11:00.283,3,80,249568,200802,74
2026-04-18T19:11:00.292,3,81,249691,200941,74
2026-04-18T19:11:00.303,3,82,249691,200941,74
2026-04-18T19:11:00.313,3,83,249691,200941,74
2026-04-18T19:11:00.322,3,84,249691,200941,74
2026-04-18T19:11:00.332,3,85,249702,200981,74
2026-04-18T19:11:00.342,3,86,249702,200981,74
2026-04-18T19:11:00.352,3,87,249702,200981,74
2026-04-18T19:11:00.362,3,88,249702,200981,74
2026-04-18T19:11:00.373,3,89,249621,200923,74
2026-04-18T19:11:00.383,3,90,249621,200923,74
2026-04-18T19:11:00.393,3,91,249621,200923,74
2026-04-18T19:11:00.403,3,92,249621,200923,74
2026-04-18T19:11:00.413,3,93,249630,200977,74
2026-04-18T19:11:00.422,3,94,249630,200977,74
2026-04-18T19:11:00.433,3,95,249630,200977,74
2026-04-18T19:11:00.442,3,96,249630,200977,74
2026-04-18T19:11:00.452,3,97,249662,201008,74
2026-04-18T19:11:00.462,3,98,249662,201008,74
2026-04-18T19:11:00.473,3,99,249662,201008,74
2026-04-18T19:11:00.482,3,100,249662,201008,74
2026-04-18T19:11:00.492,3,101,249680,201106,74
2026-04-18T19:11:00.502,3,102,249680,201106,74
2026-04-18T19:11:00.512,3,103,249680,201106,74
2026-04-18T19:11:00.522,3,104,249680,201106,74
2026-04-18T19:11:00.532,3,105,249646,201050,74
2026-04-18T19:11:00.542,3,106,249646,201050,74
2026-04-18T19:11:00.553,3,107,249646,201050,74
2026-04-18T19:11:00.562,3,108,249646,201050,74
2026-04-18T19:11:00.572,3,109,249671,201070,74
2026-04-18T19:11:00.583,3,110,249671,201070,74
2026-04-18T19:11:00.592,3,111,249671,201070,74
2026-04-18T19:11:00.603,3,112,249671,201070,74
2026-04-18T19:11:00.612,3,113,249737,201073,74
2026-04-18T19:11:00.622,3,114,249737,201073,74
2026-04-18T19:11:00.632,3,115,249737,201073,74
2026-04-18T19:11:00.642,3,116,249737,201073,74
2026-04-18T19:11:00.652,3,117,249777,201119,74
2026-04-18T19:11:00.662,3,118,249777,201119,74
2026-04-18T19:11:00.672,3,119,249777,201119,74
2026-04-18T19:11:00.682,3,120,249777,201119,74
2026-04-18T19:11:00.692,3,121,249746,201107,74
2026-04-18T19:11:00.702,3,122,249746,201107,74
2026-04-18T19:11:00.712,3,123,249746,201107,74
2026-04-18T19:11:00.722,3,124,249746,201107,74
2026-04-18T19:11:00.732,3,125,249705,201074,74
2026-04-18T19:11:00.742,3,126,249705,201074,74
2026-04-18T19:11:00.752,3,127,249705,201074,74
2026-04-18T19:11:00.761,3,128,249705,201074,74
2026-04-18T19:11:00.772,3,129,249518,200939,74
2026-04-18T19:11:00.782,3,130,249518,200939,74
2026-04-18T19:11:00.792,3,131,249518,200939,74
2026-04-18T19:11:00.802,3,132,249518,200939,74
2026-04-18T19:11:00.812,3,133,249377,200880,74
2026-04-18T19:11:00.822,3,134,249377,200880,74
2026-04-18T19:11:00.832,3,135,249377,200880,74
2026-04-18T19:11:00.842,3,136,249377,200880,74
2026-04-18T19:11:00.852,3,137,249190,200765,74
2026-04-18T19:11:00.862,3,138,249190,200765,74
2026-04-18T19:11:00.871,3,139,249190,200765,74
2026-04-18T19:11:00.881,3,140,249190,200765,74
2026-04-18T19:11:00.891,3,141,248944,200616,74
2026-04-18T19:11:00.901,3,142,248944,200616,74
2026-04-18T19:11:00.912,3,143,248944,200616,74
2026-04-18T19:11:00.922,3,144,248944,200616,74
2026-04-18T19:11:00.932,3,145,248640,200401,74
2026-04-18T19:11:00.941,3,146,248640,200401,74
2026-04-18T19:11:00.952,3,147,248640,200401,74
2026-04-18T19:11:00.962,3,148,248640,200401,74
2026-04-18T19:11:00.972,3,149,248553,200305,74
2026-04-18T19:11:00.982,3,150,248553,200305,74
2026-04-18T19:11:00.992,3,151,248553,200305,74
2026-04-18T19:11:01.002,3,152,248553,200305,74
2026-04-18T19:11:01.012,3,153,248435,200195,74
2026-04-18T19:11:01.021,3,154,248435,200195,74
2026-04-18T19:11:01.031,3,155,248435,200195,74
2026-04-18T19:11:01.042,3,156,248435,200195,74
2026-04-18T19:11:01.051,3,157,248385,200122,74
2026-04-18T19:11:01.061,3,158,248385,200122,74
2026-04-18T19:11:01.071,3,159,248385,200122,74
2026-04-18T19:11:01.081,3,160,248385,200122,74
2026-04-18T19:11:01.091,3,161,248236,200052,74
2026-04-18T19:11:01.101,3,162,248236,200052,74
2026-04-18T19:11:01.111,3,163,248236,200052,74
2026-04-18T19:11:01.121,3,164,248236,200052,74
2026-04-18T19:11:01.131,3,165,248224,200001,74
2026-04-18T19:11:01.141,3,166,248224,200001,74
2026-04-18T19:11:01.151,3,167,248224,200001,74
2026-04-18T19:11:01.161,3,168,248224,200001,74
2026-04-18T19:11:01.171,3,169,248133,199894,74
2026-04-18T19:11:01.182,3,170,248133,199894,74
2026-04-18T19:11:01.192,3,171,248133,199894,74
2026-04-18T19:11:01.201,3,172,248133,199894,74
2026-04-18T19:11:01.212,3,173,248140,199905,74
2026-04-18T19:11:01.221,3,174,248140,199905,74
2026-04-18T19:11:01.232,3,175,248140,199905,74
2026-04-18T19:11:01.241,3,176,248140,199905,74
2026-04-18T19:11:01.251,3,177,248221,199988,74
2026-04-18T19:11:01.261,3,178,248221,199988,74
2026-04-18T19:11:01.271,3,179,248221,199988,74
2026-04-18T19:11:01.281,3,180,248221,199988,74
2026-04-18T19:11:01.291,3,181,248170,199960,74
2026-04-18T19:11:01.302,3,182,248170,199960,74
2026-04-18T19:11:01.311,3,183,248170,199960,74
2026-04-18T19:11:01.321,3,184,248170,199960,74
2026-04-18T19:11:01.331,3,185,248081,199910,74
2026-04-18T19:11:01.341,3,186,248081,199910,74
2026-04-18T19:11:01.351,3,187,248081,199910,74
2026-04-18T19:11:01.361,3,188,248081,199910,74
2026-04-18T19:11:01.371,3,189,248023,199819,74
2026-04-18T19:11:01.381,3,190,248023,199819,74
2026-04-18T19:11:01.391,3,191,248023,199819,74
2026-04-18T19:11:01.401,3,192,248023,199819,74
2026-04-18T19:11:01.411,3,193,247927,199773,74
2026-04-18T19:11:01.421,3,194,247927,199773,74
2026-04-18T19:11:01.431,3,195,247927,199773,74
2026-04-18T19:11:01.441,3,196,247927,199773,74
2026-04-18T19:11:01.451,3,197,247895,199695,74
2026-04-18T19:11:01.461,3,198,247895,199695,74
2026-04-18T19:11:01.471,3,199,247895,199695,74
2026-04-18T19:11:01.481,3,200,247895,199695,74
2026-04-18T19:11:01.491,3,201,247877,199721,74
2026-04-18T19:11:01.501,3,202,247877,199721,74
2026-04-18T19:11:01.511,3,203,247877,199721,74
2026-04-18T19:11:01.521,3,204,247877,199721,74
2026-04-18T19:11:01.531,3,205,247882,199706,74
2026-04-18T19:11:01.541,3,206,247882,199706,74
2026-04-18T19:11:01.551,3,207,247882,199706,74
2026-04-18T19:11:01.561,3,208,247882,199706,74
2026-04-18T19:11:01.571,3,209,247909,199725,74
2026-04-18T19:11:01.581,3,210,247909,199725,74
2026-04-18T19:11:01.591,3,211,247909,199725,74
2026-04-18T19:11:01.601,3,212,247909,199725,74
2026-04-18T19:11:01.611,3,213,247923,199694,74
2026-04-18T19:11:01.621,3,214,247923,199694,74
2026-04-18T19:11:01.631,3,215,247923,199694,74
2026-04-18T19:11:01.641,3,216,247923,199694,74
2026-04-18T19:11:01.651,3,217,247930,199722,74
2026-04-18T19:11:01.661,3,218,247930,199722,74
2026-04-18T19:11:01.671,3,219,247930,199722,74
2026-04-18T19:11:01.681,3,220,247930,199722,74
2026-04-18T19:11:01.691,3,221,248012,199742,74
2026-04-18T19:11:01.701,3,222,248012,199742,74
2026-04-18T19:11:01.711,3,223,248012,199742,74
2026-04-18T19:11:01.721,3,224,248012,199742,74
2026-04-18T19:11:01.730,3,225,248049,199752,74
2026-04-18T19:11:01.741,3,226,248049,199752,74
2026-04-18T19:11:01.750,3,227,248049,199752,74
2026-04-18T19:11:01.761,3,228,248049,199752,74
2026-04-18T19:11:01.771,3,229,248079,199764,74
2026-04-18T19:11:01.781,3,230,248079,199764,74
2026-04-18T19:11:01.791,3,231,248079,199764,74
2026-04-18T19:11:01.801,3,232,248079,199764,74
2026-04-18T19:11:01.811,3,233,248070,199786,74
2026-04-18T19:11:01.821,3,234,248070,199786,74
2026-04-18T19:11:01.831,3,235,248070,199786,74
2026-04-18T19:11:01.840,3,236,248070,199786,74
2026-04-18T19:11:01.851,3,237,248102,199806,74
2026-04-18T19:11:01.861,3,238,248102,199806,74
2026-04-18T19:11:01.871,3,239,248102,199806,74
2026-04-18T19:11:01.880,3,240,248102,199806,74
2026-04-18T19:11:01.891,3,241,248137,199820,74
2026-04-18T19:11:01.901,3,242,248137,199820,74
2026-04-18T19:11:01.911,3,243,248137,199820,74
2026-04-18T19:11:01.921,3,244,248137,199820,74
2026-04-18T19:11:01.931,3,245,248163,199877,74
2026-04-18T19:11:01.941,3,246,248163,199877,74
2026-04-18T19:11:01.950,3,247,248163,199877,74
2026-04-18T19:11:01.961,3,248,248163,199877,74
2026-04-18T19:11:01.971,3,249,248189,199864,74
2026-04-18T19:11:01.980,3,250,248189,199864,74
2026-04-18T19:11:01.990,3,251,248189,199864,74
2026-04-18T19:11:02.001,3,252,248189,199864,74
2026-04-18T19:11:02.011,3,253,248216,199923,74
2026-04-18T19:11:02.021,3,254,248216,199923,74
2026-04-18T19:11:02.031,3,255,248216,199923,74
2026-04-18T19:11:02.040,3,256,248216,199923,74
2026-04-18T19:11:02.050,3,257,248248,199925,74
2026-04-18T19:11:02.060,3,258,248248,199925,74
2026-04-18T19:11:02.070,3,259,248248,199925,74
2026-04-18T19:11:02.080,3,260,248248,199925,74
2026-04-18T19:11:02.090,3,261,248268,199950,74
2026-04-18T19:11:02.100,3,262,248268,199950,74
2026-04-18T19:11:02.110,3,263,248268,199950,74
2026-04-18T19:11:02.120,3,264,248268,199950,74
2026-04-18T19:11:02.130,3,265,248268,199942,74
2026-04-18T19:11:02.140,3,266,248268,199942,74
2026-04-18T19:11:02.150,3,267,248268,199942,74
2026-04-18T19:11:02.160,3,268,248268,199942,74
2026-04-18T19:11:02.170,3,269,248261,199947,74
2026-04-18T19:11:02.181,3,270,248261,199947,74
2026-04-18T19:11:02.190,3,271,248261,199947,74
2026-04-18T19:11:02.200,3,272,248261,199947,74
2026-04-18T19:11:02.210,3,273,248309,199950,74
2026-04-18T19:11:02.220,3,274,248309,199950,74
2026-04-18T19:11:02.230,3,275,248309,199950,74
2026-04-18T19:11:02.240,3,276,248309,199950,74
2026-04-18T19:11:02.250,3,277,248294,199974,74
2026-04-18T19:11:02.260,3,278,248294,199974,74
2026-04-18T19:11:02.270,3,279,248294,199974,74
2026-04-18T19:11:02.280,3,280,248294,199974,74
2026-04-18T19:11:02.290,3,281,248284,199961,74
2026-04-18T19:11:02.300,3,282,248284,199961,74
2026-04-18T19:11:02.310,3,283,248284,199961,74
2026-04-18T19:11:02.320,3,284,248284,199961,74
2026-04-18T19:11:02.330,3,285,248324,199964,74
2026-04-18T19:11:02.339,3,286,248324,199964,74
2026-04-18T19:11:02.349,3,287,248324,199964,74
2026-04-18T19:11:02.359,3,288,248324,199964,74
2026-04-18T19:11:02.369,3,289,248350,200001,74
2026-04-18T19:11:02.379,3,290,248350,200001,74
2026-04-18T19:11:02.389,3,291,248350,200001,74
2026-04-18T19:11:02.399,3,292,248350,200001,74
2026-04-18T19:11:02.410,3,293,248377,200034,74
2026-04-18T19:11:02.419,3,294,248377,200034,74
2026-04-18T19:11:02.430,3,295,248377,200034,74
2026-04-18T19:11:02.439,3,296,248377,200034,74
2026-04-18T19:11:02.450,3,297,248411,200060,74
2026-04-18T19:11:02.460,3,298,248411,200060,74
2026-04-18T19:11:02.470,3,299,248411,200060,74
2026-04-18T19:11:02.480,3,300,248411,200060,74
2026-04-18T19:11:02.490,3,301,248422,200060,74
2026-04-18T19:11:02.500,3,302,248422,200060,74
2026-04-18T19:11:02.509,3,303,248422,200060,74
2026-04-18T19:11:02.520,3,304,248422,200060,74
2026-04-18T19:11:02.529,3,305,248430,200065,74
2026-04-18T19:11:02.540,3,306,248430,200065,74
2026-04-18T19:11:02.550,3,307,248430,200065,74
2026-04-18T19:11:02.559,3,308,248430,200065,74
2026-04-18T19:11:02.570,3,309,248445,200073,74
2026-04-18T19:11:02.579,3,310,248445,200073,74
2026-04-18T19:11:02.589,3,311,248445,200073,74
2026-04-18T19:11:02.599,3,312,248445,200073,74
2026-04-18T19:11:02.610,3,313,248420,200073,74
2026-04-18T19:11:02.619,3,314,248420,200073,74
2026-04-18T19:11:02.629,3,315,248420,200073,74
2026-04-18T19:11:02.639,3,316,248420,200073,74
2026-04-18T19:11:02.650,3,317,248488,200154,74
2026-04-18T19:11:02.660,3,318,248488,200154,74
2026-04-18T19:11:02.670,3,319,248488,200154,74
2026-04-18T19:11:02.679,3,320,248488,200154,74
2026-04-18T19:11:02.689,3,321,248520,200161,74
2026-04-18T19:11:02.699,3,322,248520,200161,74
2026-04-18T19:11:02.710,3,323,248520,200161,74
2026-04-18T19:11:02.719,3,324,248520,200161,74
2026-04-18T19:11:02.730,3,325,248519,200188,74
2026-04-18T19:11:02.739,3,326,248519,200188,74
2026-04-18T19:11:02.749,3,327,248519,200188,74
2026-04-18T19:11:02.759,3,328,248519,200188,74
2026-04-18T19:11:02.769,3,329,248537,200208,74
2026-04-18T19:11:02.779,3,330,248537,200208,74
2026-04-18T19:11:02.789,3,331,248537,200208,74
2026-04-18T19:11:02.799,3,332,248537,200208,74
2026-04-18T19:11:02.809,3,333,248556,200216,74
2026-04-18T19:11:02.820,3,334,248556,200216,74
2026-04-18T19:11:02.830,3,335,248556,200216,74
2026-04-18T19:11:02.840,3,336,248556,200216,74
2026-04-18T19:11:02.849,3,337,248564,200192,74
2026-04-18T19:11:02.859,3,338,248564,200192,74
2026-04-18T19:11:02.869,3,339,248564,200192,74
2026-04-18T19:11:02.879,3,340,248564,200192,74
2026-04-18T19:11:02.889,3,341,248534,200190,74
2026-04-18T19:11:02.900,3,342,248534,200190,74
2026-04-18T19:11:02.909,3,343,248534,200190,74
2026-04-18T19:11:02.919,3,344,248534,200190,74
2026-04-18T19:11:02.929,3,345,248496,200165,74
2026-04-18T19:11:02.939,3,346,248496,200165,74
2026-04-18T19:11:02.949,3,347,248496,200165,74
2026-04-18T19:11:02.959,3,348,248496,200165,74
2026-04-18T19:11:02.969,3,349,248454,200151,74
2026-04-18T19:11:02.979,3,350,248454,200151,74
2026-04-18T19:11:02.989,3,351,248454,200151,74
2026-04-18T19:11:02.999,3,352,248454,200151,74
2026-04-18T19:11:03.009,3,353,248458,200134,74
2026-04-18T19:11:03.019,3,354,248458,200134,74
2026-04-18T19:11:03.029,3,355,248458,200134,74
2026-04-18T19:11:03.039,3,356,248458,200134,74
2026-04-18T19:11:03.049,3,357,248431,200132,74
2026-04-18T19:11:03.059,3,358,248431,200132,74
2026-04-18T19:11:03.069,3,359,248431,200132,74
2026-04-18T19:11:03.079,3,360,248431,200132,74
2026-04-18T19:11:03.089,3,361,248397,200096,74
2026-04-18T19:11:03.099,3,362,248397,200096,74
2026-04-18T19:11:03.109,3,363,248397,200096,74
2026-04-18T19:11:03.119,3,364,248397,200096,74
2026-04-18T19:11:03.129,3,365,248365,200085,74
2026-04-18T19:11:03.139,3,366,248365,200085,74
2026-04-18T19:11:03.148,3,367,248365,200085,74
2026-04-18T19:11:03.159,3,368,248365,200085,74
2026-04-18T19:11:03.169,3,369,248337,200068,74
2026-04-18T19:11:03.179,3,370,248337,200068,74
2026-04-18T19:11:03.189,3,371,248337,200068,74
2026-04-18T19:11:03.199,3,372,248337,200068,74
2026-04-18T19:11:03.209,3,373,248297,200037,74
2026-04-18T19:11:03.219,3,374,248297,200037,74
2026-04-18T19:11:03.229,3,375,248297,200037,74
2026-04-18T19:11:03.239,3,376,248297,200037,74
2026-04-18T19:11:03.249,3,377,248288,200019,74
2026-04-18T19:11:03.259,3,378,248288,200019,74
2026-04-18T19:11:03.269,3,379,248288,200019,74
2026-04-18T19:11:03.278,3,380,248288,200019,74
2026-04-18T19:11:03.288,3,381,248239,200011,74
2026-04-18T19:11:03.299,3,382,248239,200011,74
2026-04-18T19:11:03.309,3,383,248239,200011,74
2026-04-18T19:11:03.319,3,384,248239,200011,74
2026-04-18T19:11:03.329,3,385,248220,200014,74
2026-04-18T19:11:03.338,3,386,248220,200014,74
2026-04-18T19:11:03.348,3,387,248220,200014,74
2026-04-18T19:11:03.358,3,388,248220,200014,74
2026-04-18T19:11:03.368,3,389,248219,200032,74
2026-04-18T19:11:03.378,3,390,248219,200032,74
2026-04-18T19:11:03.388,3,391,248219,200032,74
2026-04-18T19:11:03.399,3,392,248219,200032,74
2026-04-18T19:11:03.409,3,393,248212,199964,74
2026-04-18T19:11:03.418,3,394,248212,199964,74
2026-04-18T19:11:03.429,3,395,248212,199964,74
2026-04-18T19:11:03.438,3,396,248212,199964,74
2026-04-18T19:11:03.449,3,397,248209,200005,74
2026-04-18T19:11:03.459,3,398,248209,200005,74
2026-04-18T19:11:03.469,3,399,248209,200005,74
2026-04-18T19:11:03.479,3,400,248209,200005,74
2026-04-18T19:11:03.489,3,401,248206,199967,74
2026-04-18T19:11:03.498,3,402,248206,199967,74
2026-04-18T19:11:03.508,3,403,248206,199967,74
2026-04-18T19:11:03.518,3,404,248206,199967,74
2026-04-18T19:11:03.529,3,405,248229,199990,74
2026-04-18T19:11:03.539,3,406,248229,199990,74
2026-04-18T19:11:03.549,3,407,248229,199990,74
2026-04-18T19:11:03.558,3,408,248229,199990,74
2026-04-18T19:11:03.569,3,409,248213,200008,74
2026-04-18T19:11:03.578,3,410,248213,200008,74
2026-04-18T19:11:03.589,3,411,248213,200008,74
2026-04-18T19:11:03.598,3,412,248213,200008,74
2026-04-18T19:11:03.609,3,413,248223,200019,74
2026-04-18T19:11:03.619,3,414,248223,200019,74
2026-04-18T19:11:03.628,3,415,248223,200019,74
2026-04-18T19:11:03.638,3,416,248223,200019,74
2026-04-18T19:11:03.649,3,417,248281,199998,74
2026-04-18T19:11:03.658,3,418,248281,199998,74
2026-04-18T19:11:03.668,3,419,248281,199998,74
2026-04-18T19:11:03.678,3,420,248281,199998,74
2026-04-18T19:11:03.688,3,421,248284,199996,74
2026-04-18T19:11:03.698,3,422,248284,199996,74
2026-04-18T19:11:03.708,3,423,248284,199996,74
2026-04-18T19:11:03.718,3,424,248284,199996,74
2026-04-18T19:11:03.728,3,425,248329,200015,74
2026-04-18T19:11:03.738,3,426,248329,200015,74
2026-04-18T19:11:03.748,3,427,248329,200015,74
2026-04-18T19:11:03.758,3,428,248329,200015,74
2026-04-18T19:11:03.768,3,429,248373,200067,74
2026-04-18T19:11:03.778,3,430,248373,200067,74
2026-04-18T19:11:03.788,3,431,248373,200067,74
2026-04-18T19:11:03.798,3,432,248373,200067,74
2026-04-18T19:11:03.808,3,433,248382,200051,74
2026-04-18T19:11:03.818,3,434,248382,200051,74
2026-04-18T19:11:03.827,3,435,248382,200051,74
2026-04-18T19:11:03.838,3,436,248382,200051,74
2026-04-18T19:11:03.848,3,437,248448,200095,74
2026-04-18T19:11:03.858,3,438,248448,200095,74
2026-04-18T19:11:03.868,3,439,248448,200095,74
2026-04-18T19:11:03.878,3,440,248448,200095,74
2026-04-18T19:11:03.888,3,441,248446,200106,74
2026-04-18T19:11:03.898,3,442,248446,200106,74
2026-04-18T19:11:03.908,3,443,248446,200106,74
2026-04-18T19:11:03.918,3,444,248446,200106,74
2026-04-18T19:11:03.928,3,445,248484,200105,74
2026-04-18T19:11:03.938,3,446,248484,200105,74
2026-04-18T19:11:03.948,3,447,248484,200105,74
2026-04-18T19:11:03.958,3,448,248484,200105,74
2026-04-18T19:11:03.968,3,449,248521,200142,74
2026-04-18T19:11:03.978,3,450,248521,200142,74
2026-04-18T19:11:03.988,3,451,248521,200142,74
2026-04-18T19:11:03.998,3,452,248521,200142,74
2026-04-18T19:11:04.008,3,453,248499,200143,74
2026-04-18T19:11:04.018,3,454,248499,200143,74
2026-04-18T19:11:04.028,3,455,248499,200143,74
2026-04-18T19:11:04.038,3,456,248499,200143,74
2026-04-18T19:11:04.048,3,457,248557,200154,74
2026-04-18T19:11:04.058,3,458,248557,200154,74
2026-04-18T19:11:04.068,3,459,248557,200154,74
2026-04-18T19:11:04.078,3,460,248557,200154,74
2026-04-18T19:11:04.088,3,461,248597,200208,74
2026-04-18T19:11:04.098,3,462,248597,200208,74
2026-04-18T19:11:04.107,3,463,248597,200208,74
2026-04-18T19:11:04.118,3,464,248597,200208,74
2026-04-18T19:11:04.127,3,465,248624,200216,74
2026-04-18T19:11:04.138,3,466,248624,200216,74
2026-04-18T19:11:04.147,3,467,248624,200216,74
2026-04-18T19:11:04.158,3,468,248624,200216,74
2026-04-18T19:11:04.168,3,469,248666,200230,74
2026-04-18T19:11:04.177,3,470,248666,200230,74
2026-04-18T19:11:04.187,3,471,248666,200230,74
2026-04-18T19:11:04.197,3,472,248666,200230,74
2026-04-18T19:11:04.207,3,473,248642,200251,74
2026-04-18T19:11:04.217,3,474,248642,200251,74
2026-04-18T19:11:04.227,3,475,248642,200251,74
2026-04-18T19:11:04.237,3,476,248642,200251,74
2026-04-18T19:11:04.247,3,477,248667,200233,74
2026-04-18T19:11:04.257,3,478,248667,200233,74
2026-04-18T19:11:04.267,3,479,248667,200233,74
2026-04-18T19:11:04.277,3,480,248667,200233,74
2026-04-18T19:11:04.287,3,481,248673,200248,74
2026-04-18T19:11:04.297,3,482,248673,200248,74
2026-04-18T19:11:04.307,3,483,248673,200248,74
2026-04-18T19:11:04.317,3,484,248673,200248,74
2026-04-18T19:11:04.327,3,485,248701,200274,74
2026-04-18T19:11:04.337,3,486,248701,200274,74
2026-04-18T19:11:04.347,3,487,248701,200274,74
2026-04-18T19:11:04.357,3,488,248701,200274,74
2026-04-18T19:11:04.367,3,489,248721,200294,74
2026-04-18T19:11:04.377,3,490,248721,200294,74
2026-04-18T19:11:04.387,3,491,248721,200294,74
2026-04-18T19:11:04.397,3,492,248721,200294,74
2026-04-18T19:11:04.407,3,493,248756,200295,74
2026-04-18T19:11:04.417,3,494,248756,200295,74
2026-04-18T19:11:04.427,3,495,248756,200295,74
2026-04-18T19:11:04.437,3,496,248756,200295,74
2026-04-18T19:11:04.447,3,497,248730,200274,74
2026-04-18T19:11:04.457,3,498,248730,200274,74
2026-04-18T19:11:04.467,3,499,248730,200274,74
2026-04-18T19:11:04.477,3,500,248730,200274,74
2026-04-18T19:11:04.487,3,501,248811,200318,74
2026-04-18T19:11:04.497,3,502,248811,200318,74
2026-04-18T19:11:04.507,3,503,248811,200318,74
2026-04-18T19:11:04.517,3,504,248811,200318,74
2026-04-18T19:11:04.527,3,505,248788,200304,74
2026-04-18T19:11:04.537,3,506,248788,200304,74
2026-04-18T19:11:04.547,3,507,248788,200304,74
2026-04-18T19:11:04.557,3,508,248788,200304,74
2026-04-18T19:11:04.567,3,509,248818,200340,74
2026-04-18T19:11:04.577,3,510,248818,200340,74
2026-04-18T19:11:04.587,3,511,248818,200340,74
2026-04-18T19:11:04.597,3,512,248818,200340,74
2026-04-18T19:11:04.607,3,513,248829,200361,74
2026-04-18T19:11:04.617,3,514,248829,200361,74
2026-04-18T19:11:04.627,3,515,248829,200361,74
2026-04-18T19:11:04.637,3,516,248829,200361,74
2026-04-18T19:11:04.647,3,517,248845,200360,74
2026-04-18T19:11:04.657,3,518,248845,200360,74
