timestamp,window,sample,ir_raw,red_raw,true_hr
2026-04-18T19:28:53.038,1,0,160226,134401,79.0
2026-04-18T19:28:53.048,1,1,160226,134401,79.0
2026-04-18T19:28:53.058,1,2,160226,134401,79.0
2026-04-18T19:28:53.068,1,3,160226,134401,79.0
2026-04-18T19:28:53.078,1,4,160274,134485,79.0
2026-04-18T19:28:53.088,1,5,160274,134485,79.0
2026-04-18T19:28:53.098,1,6,160274,134485,79.0
2026-04-18T19:28:53.108,1,7,160274,134485,79.0
2026-04-18T19:28:53.118,1,8,160258,134496,79.0
2026-04-18T19:28:53.128,1,9,160258,134496,79.0
2026-04-18T19:28:53.138,1,10,160258,134496,79.0
2026-04-18T19:28:53.149,1,11,160258,134496,79.0
2026-04-18T19:28:53.158,1,12,160209,134403,79.0
2026-04-18T19:28:53.169,1,13,160209,134403,79.0
2026-04-18T19:28:53.178,1,14,160209,134403,79.0
2026-04-18T19:28:53.188,1,15,160209,134403,79.0
2026-04-18T19:28:53.199,1,16,160199,134369,79.0
2026-04-18T19:28:53.208,1,17,160199,134369,79.0
2026-04-18T19:28:53.219,1,18,160199,134369,79.0
2026-04-18T19:28:53.228,1,19,160199,134369,79.0
2026-04-18T19:28:53.239,1,20,160240,134391,79.0
2026-04-18T19:28:53.248,1,21,160240,134391,79.0
2026-04-18T19:28:53.258,1,22,160240,134391,79.0
2026-04-18T19:28:53.268,1,23,160240,134391,79.0
2026-04-18T19:28:53.278,1,24,160328,134518,79.0
2026-04-18T19:28:53.289,1,25,160328,134518,79.0
2026-04-18T19:28:53.298,1,26,160328,134518,79.0
2026-04-18T19:28:53.308,1,27,160328,134518,79.0
2026-04-18T19:28:53.319,1,28,160316,134478,79.0
2026-04-18T19:28:53.328,1,29,160316,134478,79.0
2026-04-18T19:28:53.338,1,30,160316,134478,79.0
2026-04-18T19:28:53.348,1,31,160316,134478,79.0
2026-04-18T19:28:53.358,1,32,160434,134618,79.0
2026-04-18T19:28:53.369,1,33,160434,134618,79.0
2026-04-18T19:28:53.378,1,34,160434,134618,79.0
2026-04-18T19:28:53.388,1,35,160434,134618,79.0
2026-04-18T19:28:53.398,1,36,160615,134951,79.0
2026-04-18T19:28:53.408,1,37,160615,134951,79.0
2026-04-18T19:28:53.418,1,38,160615,134951,79.0
2026-04-18T19:28:53.429,1,39,160615,134951,79.0
2026-04-18T19:28:53.438,1,40,160864,135363,79.0
2026-04-18T19:28:53.448,1,41,160864,135363,79.0
2026-04-18T19:28:53.458,1,42,160864,135363,79.0
2026-04-18T19:28:53.468,1,43,160864,135363,79.0
2026-04-18T19:28:53.478,1,44,161089,135774,79.0
2026-04-18T19:28:53.488,1,45,161089,135774,79.0
2026-04-18T19:28:53.498,1,46,161089,135774,79.0
2026-04-18T19:28:53.508,1,47,161089,135774,79.0
2026-04-18T19:28:53.518,1,48,161311,136191,79.0
2026-04-18T19:28:53.528,1,49,161311,136191,79.0
2026-04-18T19:28:53.538,1,50,161311,136191,79.0
2026-04-18T19:28:53.548,1,51,161311,136191,79.0
2026-04-18T19:28:53.558,1,52,161501,136572,79.0
2026-04-18T19:28:53.568,1,53,161501,136572,79.0
2026-04-18T19:28:53.578,1,54,161501,136572,79.0
2026-04-18T19:28:53.588,1,55,161501,136572,79.0
2026-04-18T19:28:53.598,1,56,161605,136805,79.0
2026-04-18T19:28:53.608,1,57,161605,136805,79.0
2026-04-18T19:28:53.618,1,58,161605,136805,79.0
2026-04-18T19:28:53.627,1,59,161605,136805,79.0
2026-04-18T19:28:53.638,1,60,161709,137053,79.0
2026-04-18T19:28:53.648,1,61,161709,137053,79.0
2026-04-18T19:28:53.658,1,62,161709,137053,79.0
2026-04-18T19:28:53.668,1,63,161709,137053,79.0
2026-04-18T19:28:53.678,1,64,161820,137247,79.0
2026-04-18T19:28:53.688,1,65,161820,137247,79.0
2026-04-18T19:28:53.698,1,66,161820,137247,79.0
2026-04-18T19:28:53.708,1,67,161820,137247,79.0
2026-04-18T19:28:53.718,1,68,161918,137374,79.0
2026-04-18T19:28:53.727,1,69,161918,137374,79.0
2026-04-18T19:28:53.737,1,70,161918,137374,79.0
2026-04-18T19:28:53.748,1,71,161918,137374,79.0
2026-04-18T19:28:53.758,1,72,161940,137372,79.0
2026-04-18T19:28:53.768,1,73,161940,137372,79.0
2026-04-18T19:28:53.778,1,74,161940,137372,79.0
2026-04-18T19:28:53.788,1,75,161940,137372,79.0
2026-04-18T19:28:53.798,1,76,161826,137076,79.0
2026-04-18T19:28:53.808,1,77,161826,137076,79.0
2026-04-18T19:28:53.818,1,78,161826,137076,79.0
2026-04-18T19:28:53.828,1,79,161826,137076,79.0
2026-04-18T19:28:53.838,1,80,161674,136705,79.0
2026-04-18T19:28:53.848,1,81,161674,136705,79.0
2026-04-18T19:28:53.857,1,82,161674,136705,79.0
2026-04-18T19:28:53.867,1,83,161674,136705,79.0
2026-04-18T19:28:53.877,1,84,161571,136454,79.0
2026-04-18T19:28:53.887,1,85,161571,136454,79.0
2026-04-18T19:28:53.897,1,86,161571,136454,79.0
2026-04-18T19:28:53.907,1,87,161571,136454,79.0
2026-04-18T19:28:53.917,1,88,161684,136602,79.0
2026-04-18T19:28:53.927,1,89,161684,136602,79.0
2026-04-18T19:28:53.937,1,90,161684,136602,79.0
2026-04-18T19:28:53.947,1,91,161684,136602,79.0
2026-04-18T19:28:53.958,1,92,161945,136936,79.0
2026-04-18T19:28:53.968,1,93,161945,136936,79.0
2026-04-18T19:28:53.978,1,94,161945,136936,79.0
2026-04-18T19:28:53.988,1,95,161945,136936,79.0
2026-04-18T19:28:53.997,1,96,162062,137147,79.0
2026-04-18T19:28:54.007,1,97,162062,137147,79.0
2026-04-18T19:28:54.017,1,98,162062,137147,79.0
2026-04-18T19:28:54.028,1,99,162062,137147,79.0
2026-04-18T19:28:54.038,1,100,162247,137468,79.0
2026-04-18T19:28:54.047,1,101,162247,137468,79.0
2026-04-18T19:28:54.057,1,102,162247,137468,79.0
2026-04-18T19:28:54.067,1,103,162247,137468,79.0
2026-04-18T19:28:54.077,1,104,162383,137679,79.0
2026-04-18T19:28:54.087,1,105,162383,137679,79.0
2026-04-18T19:28:54.097,1,106,162383,137679,79.0
2026-04-18T19:28:54.107,1,107,162383,137679,79.0
2026-04-18T19:28:54.117,1,108,162730,138334,79.0
2026-04-18T19:28:54.128,1,109,162730,138334,79.0
2026-04-18T19:28:54.137,1,110,162730,138334,79.0
2026-04-18T19:28:54.147,1,111,162730,138334,79.0
2026-04-18T19:28:54.157,1,112,162948,138813,79.0
2026-04-18T19:28:54.167,1,113,162948,138813,79.0
2026-04-18T19:28:54.177,1,114,162948,138813,79.0
2026-04-18T19:28:54.188,1,115,162948,138813,79.0
2026-04-18T19:28:54.197,1,116,163342,139560,79.0
2026-04-18T19:28:54.207,1,117,163342,139560,79.0
2026-04-18T19:28:54.218,1,118,163342,139560,79.0
2026-04-18T19:28:54.227,1,119,163342,139560,79.0
2026-04-18T19:28:54.238,1,120,163754,140304,79.0
2026-04-18T19:28:54.247,1,121,163754,140304,79.0
2026-04-18T19:28:54.257,1,122,163754,140304,79.0
2026-04-18T19:28:54.267,1,123,163754,140304,79.0
2026-04-18T19:28:54.277,1,124,164160,140866,79.0
2026-04-18T19:28:54.287,1,125,164160,140866,79.0
2026-04-18T19:28:54.297,1,126,164160,140866,79.0
2026-04-18T19:28:54.307,1,127,164160,140866,79.0
2026-04-18T19:28:54.317,1,128,164355,141426,79.0
2026-04-18T19:28:54.327,1,129,164355,141426,79.0
2026-04-18T19:28:54.337,1,130,164355,141426,79.0
2026-04-18T19:28:54.347,1,131,164355,141426,79.0
2026-04-18T19:28:54.357,1,132,164481,141890,79.0
2026-04-18T19:28:54.367,1,133,164481,141890,79.0
2026-04-18T19:28:54.377,1,134,164481,141890,79.0
2026-04-18T19:28:54.388,1,135,164481,141890,79.0
2026-04-18T19:28:54.397,1,136,164429,141939,79.0
2026-04-18T19:28:54.407,1,137,164429,141939,79.0
2026-04-18T19:28:54.417,1,138,164429,141939,79.0
2026-04-18T19:28:54.427,1,139,164429,141939,79.0
2026-04-18T19:28:54.437,1,140,164534,142182,79.0
2026-04-18T19:28:54.447,1,141,164534,142182,79.0
2026-04-18T19:28:54.457,1,142,164534,142182,79.0
2026-04-18T19:28:54.467,1,143,164534,142182,79.0
2026-04-18T19:28:54.477,1,144,164697,142526,79.0
2026-04-18T19:28:54.487,1,145,164697,142526,79.0
2026-04-18T19:28:54.497,1,146,164697,142526,79.0
2026-04-18T19:28:54.507,1,147,164697,142526,79.0
2026-04-18T19:28:54.517,1,148,164670,142456,79.0
2026-04-18T19:28:54.527,1,149,164670,142456,79.0
2026-04-18T19:28:54.537,1,150,164670,142456,79.0
2026-04-18T19:28:54.547,1,151,164670,142456,79.0
2026-04-18T19:28:54.557,1,152,164668,142505,79.0
2026-04-18T19:28:54.567,1,153,164668,142505,79.0
2026-04-18T19:28:54.577,1,154,164668,142505,79.0
2026-04-18T19:28:54.587,1,155,164668,142505,79.0
2026-04-18T19:28:54.597,1,156,164669,142538,79.0
2026-04-18T19:28:54.607,1,157,164669,142538,79.0
2026-04-18T19:28:54.617,1,158,164669,142538,79.0
2026-04-18T19:28:54.627,1,159,164669,142538,79.0
2026-04-18T19:28:54.637,1,160,164689,142572,79.0
2026-04-18T19:28:54.646,1,161,164689,142572,79.0
2026-04-18T19:28:54.656,1,162,164689,142572,79.0
2026-04-18T19:28:54.666,1,163,164689,142572,79.0
2026-04-18T19:28:54.677,1,164,164845,142829,79.0
2026-04-18T19:28:54.687,1,165,164845,142829,79.0
2026-04-18T19:28:54.697,1,166,164845,142829,79.0
2026-04-18T19:28:54.706,1,167,164845,142829,79.0
2026-04-18T19:28:54.716,1,168,165169,143463,79.0
2026-04-18T19:28:54.726,1,169,165169,143463,79.0
2026-04-18T19:28:54.736,1,170,165169,143463,79.0
2026-04-18T19:28:54.746,1,171,165169,143463,79.0
2026-04-18T19:28:54.756,1,172,165418,143998,79.0
2026-04-18T19:28:54.766,1,173,165418,143998,79.0
2026-04-18T19:28:54.776,1,174,165418,143998,79.0
2026-04-18T19:28:54.786,1,175,165418,143998,79.0
2026-04-18T19:28:54.796,1,176,165690,144614,79.0
2026-04-18T19:28:54.806,1,177,165690,144614,79.0
2026-04-18T19:28:54.817,1,178,165690,144614,79.0
2026-04-18T19:28:54.827,1,179,165690,144614,79.0
2026-04-18T19:28:54.837,1,180,165786,144859,79.0
2026-04-18T19:28:54.847,1,181,165786,144859,79.0
2026-04-18T19:28:54.856,1,182,165786,144859,79.0
2026-04-18T19:28:54.866,1,183,165786,144859,79.0
2026-04-18T19:28:54.876,1,184,165751,144849,79.0
2026-04-18T19:28:54.886,1,185,165751,144849,79.0
2026-04-18T19:28:54.896,1,186,165751,144849,79.0
2026-04-18T19:28:54.906,1,187,165751,144849,79.0
2026-04-18T19:28:54.916,1,188,165774,144930,79.0
2026-04-18T19:28:54.926,1,189,165774,144930,79.0
2026-04-18T19:28:54.936,1,190,165774,144930,79.0
2026-04-18T19:28:54.946,1,191,165774,144930,79.0
2026-04-18T19:28:54.956,1,192,165937,145278,79.0
2026-04-18T19:28:54.966,1,193,165937,145278,79.0
2026-04-18T19:28:54.976,1,194,165937,145278,79.0
2026-04-18T19:28:54.986,1,195,165937,145278,79.0
2026-04-18T19:28:54.996,1,196,166142,145731,79.0
2026-04-18T19:28:55.006,1,197,166142,145731,79.0
2026-04-18T19:28:55.016,1,198,166142,145731,79.0
2026-04-18T19:28:55.026,1,199,166142,145731,79.0
2026-04-18T19:28:55.036,1,200,166372,146201,79.0
2026-04-18T19:28:55.046,1,201,166372,146201,79.0
2026-04-18T19:28:55.056,1,202,166372,146201,79.0
2026-04-18T19:28:55.067,1,203,166372,146201,79.0
2026-04-18T19:28:55.076,1,204,166520,146498,79.0
2026-04-18T19:28:55.086,1,205,166520,146498,79.0
2026-04-18T19:28:55.096,1,206,166520,146498,79.0
2026-04-18T19:28:55.106,1,207,166520,146498,79.0
2026-04-18T19:28:55.116,1,208,166507,146362,79.0
2026-04-18T19:28:55.126,1,209,166507,146362,79.0
2026-04-18T19:28:55.136,1,210,166507,146362,79.0
2026-04-18T19:28:55.146,1,211,166507,146362,79.0
2026-04-18T19:28:55.156,1,212,166411,146075,79.0
2026-04-18T19:28:55.166,1,213,166411,146075,79.0
2026-04-18T19:28:55.176,1,214,166411,146075,79.0
2026-04-18T19:28:55.186,1,215,166411,146075,79.0
2026-04-18T19:28:55.196,1,216,166349,145820,79.0
2026-04-18T19:28:55.206,1,217,166349,145820,79.0
2026-04-18T19:28:55.215,1,218,166349,145820,79.0
2026-04-18T19:28:55.226,1,219,166349,145820,79.0
2026-04-18T19:28:55.236,1,220,166059,145062,79.0
2026-04-18T19:28:55.246,1,221,166059,145062,79.0
2026-04-18T19:28:55.255,1,222,166059,145062,79.0
2026-04-18T19:28:55.266,1,223,166059,145062,79.0
2026-04-18T19:28:55.275,1,224,165689,144282,79.0
2026-04-18T19:28:55.285,1,225,165689,144282,79.0
2026-04-18T19:28:55.295,1,226,165689,144282,79.0
2026-04-18T19:28:55.305,1,227,165689,144282,79.0
2026-04-18T19:28:55.316,1,228,165285,143419,79.0
2026-04-18T19:28:55.326,1,229,165285,143419,79.0
2026-04-18T19:28:55.336,1,230,165285,143419,79.0
2026-04-18T19:28:55.346,1,231,165285,143419,79.0
2026-04-18T19:28:55.356,1,232,164847,142651,79.0
2026-04-18T19:28:55.365,1,233,164847,142651,79.0
2026-04-18T19:28:55.376,1,234,164847,142651,79.0
2026-04-18T19:28:55.385,1,235,164847,142651,79.0
2026-04-18T19:28:55.395,1,236,164545,142159,79.0
2026-04-18T19:28:55.405,1,237,164545,142159,79.0
2026-04-18T19:28:55.416,1,238,164545,142159,79.0
2026-04-18T19:28:55.426,1,239,164545,142159,79.0
2026-04-18T19:28:55.436,1,240,164253,141625,79.0
2026-04-18T19:28:55.446,1,241,164253,141625,79.0
2026-04-18T19:28:55.456,1,242,164253,141625,79.0
2026-04-18T19:28:55.466,1,243,164253,141625,79.0
2026-04-18T19:28:55.476,1,244,163907,141025,79.0
2026-04-18T19:28:55.486,1,245,163907,141025,79.0
2026-04-18T19:28:55.496,1,246,163907,141025,79.0
2026-04-18T19:28:55.506,1,247,163907,141025,79.0
2026-04-18T19:28:55.515,1,248,163702,140683,79.0
2026-04-18T19:28:55.526,1,249,163702,140683,79.0
2026-04-18T19:28:55.536,1,250,163702,140683,79.0
2026-04-18T19:28:55.546,1,251,163702,140683,79.0
2026-04-18T19:28:55.555,1,252,163504,140375,79.0
2026-04-18T19:28:55.565,1,253,163504,140375,79.0
2026-04-18T19:28:55.575,1,254,163504,140375,79.0
2026-04-18T19:28:55.586,1,255,163504,140375,79.0
2026-04-18T19:28:55.595,1,256,163297,139967,79.0
2026-04-18T19:28:55.605,1,257,163297,139967,79.0
2026-04-18T19:28:55.615,1,258,163297,139967,79.0
2026-04-18T19:28:55.626,1,259,163297,139967,79.0
2026-04-18T19:28:55.636,1,260,163028,139415,79.0
2026-04-18T19:28:55.646,1,261,163028,139415,79.0
2026-04-18T19:28:55.655,1,262,163028,139415,79.0
2026-04-18T19:28:55.666,1,263,163028,139415,79.0
2026-04-18T19:28:55.675,1,264,162798,139051,79.0
2026-04-18T19:28:55.685,1,265,162798,139051,79.0
2026-04-18T19:28:55.695,1,266,162798,139051,79.0
2026-04-18T19:28:55.705,1,267,162798,139051,79.0
2026-04-18T19:28:55.715,1,268,162616,138665,79.0
2026-04-18T19:28:55.725,1,269,162616,138665,79.0
2026-04-18T19:28:55.735,1,270,162616,138665,79.0
2026-04-18T19:28:55.745,1,271,162616,138665,79.0
2026-04-18T19:28:55.755,1,272,162407,138288,79.0
2026-04-18T19:28:55.765,1,273,162407,138288,79.0
2026-04-18T19:28:55.775,1,274,162407,138288,79.0
2026-04-18T19:28:55.785,1,275,162407,138288,79.0
2026-04-18T19:28:55.795,1,276,162253,138070,79.0
2026-04-18T19:28:55.805,1,277,162253,138070,79.0
2026-04-18T19:28:55.815,1,278,162253,138070,79.0
2026-04-18T19:28:55.825,1,279,162253,138070,79.0
2026-04-18T19:28:55.835,1,280,162143,137898,79.0
2026-04-18T19:28:55.845,1,281,162143,137898,79.0
2026-04-18T19:28:55.854,1,282,162143,137898,79.0
2026-04-18T19:28:55.864,1,283,162143,137898,79.0
2026-04-18T19:28:55.874,1,284,162028,137692,79.0
2026-04-18T19:28:55.885,1,285,162028,137692,79.0
2026-04-18T19:28:55.894,1,286,162028,137692,79.0
2026-04-18T19:28:55.905,1,287,162028,137692,79.0
2026-04-18T19:28:55.915,1,288,161949,137594,79.0
2026-04-18T19:28:55.925,1,289,161949,137594,79.0
2026-04-18T19:28:55.935,1,290,161949,137594,79.0
2026-04-18T19:28:55.945,1,291,161949,137594,79.0
2026-04-18T19:28:55.954,1,292,162046,137803,79.0
2026-04-18T19:28:55.965,1,293,162046,137803,79.0
2026-04-18T19:28:55.974,1,294,162046,137803,79.0
2026-04-18T19:28:55.984,1,295,162046,137803,79.0
2026-04-18T19:28:55.995,1,296,162146,137969,79.0
2026-04-18T19:28:56.005,1,297,162146,137969,79.0
2026-04-18T19:28:56.015,1,298,162146,137969,79.0
2026-04-18T19:28:56.025,1,299,162146,137969,79.0
2026-04-18T19:28:56.035,1,300,162027,137744,79.0
2026-04-18T19:28:56.045,1,301,162027,137744,79.0
2026-04-18T19:28:56.055,1,302,162027,137744,79.0
2026-04-18T19:28:56.065,1,303,162027,137744,79.0
2026-04-18T19:28:56.074,1,304,161824,137318,79.0
2026-04-18T19:28:56.085,1,305,161824,137318,79.0
2026-04-18T19:28:56.095,1,306,161824,137318,79.0
2026-04-18T19:28:56.105,1,307,161824,137318,79.0
2026-04-18T19:28:56.115,1,308,161666,137018,79.0
2026-04-18T19:28:56.125,1,309,161666,137018,79.0
2026-04-18T19:28:56.135,1,310,161666,137018,79.0
2026-04-18T19:28:56.145,1,311,161666,137018,79.0
2026-04-18T19:28:56.154,1,312,161564,136812,79.0
2026-04-18T19:28:56.164,1,313,161564,136812,79.0
2026-04-18T19:28:56.175,1,314,161564,136812,79.0
2026-04-18T19:28:56.185,1,315,161564,136812,79.0
2026-04-18T19:28:56.195,1,316,161523,136729,79.0
2026-04-18T19:28:56.204,1,317,161523,136729,79.0
2026-04-18T19:28:56.214,1,318,161523,136729,79.0
2026-04-18T19:28:56.224,1,319,161523,136729,79.0
2026-04-18T19:28:56.234,1,320,161584,136801,79.0
2026-04-18T19:28:56.244,1,321,161584,136801,79.0
2026-04-18T19:28:56.255,1,322,161584,136801,79.0
2026-04-18T19:28:56.264,1,323,161584,136801,79.0
2026-04-18T19:28:56.274,1,324,161800,137183,79.0
2026-04-18T19:28:56.284,1,325,161800,137183,79.0
2026-04-18T19:28:56.294,1,326,161800,137183,79.0
2026-04-18T19:28:56.304,1,327,161800,137183,79.0
2026-04-18T19:28:56.314,1,328,161903,137281,79.0
2026-04-18T19:28:56.324,1,329,161903,137281,79.0
2026-04-18T19:28:56.334,1,330,161903,137281,79.0
2026-04-18T19:28:56.344,1,331,161903,137281,79.0
2026-04-18T19:28:56.354,1,332,162038,137429,79.0
2026-04-18T19:28:56.364,1,333,162038,137429,79.0
2026-04-18T19:28:56.374,1,334,162038,137429,79.0
2026-04-18T19:28:56.384,1,335,162038,137429,79.0
2026-04-18T19:28:56.394,1,336,162241,137813,79.0
2026-04-18T19:28:56.404,1,337,162241,137813,79.0
2026-04-18T19:28:56.414,1,338,162241,137813,79.0
2026-04-18T19:28:56.425,1,339,162241,137813,79.0
2026-04-18T19:28:56.434,1,340,162466,138239,79.0
2026-04-18T19:28:56.444,1,341,162466,138239,79.0
2026-04-18T19:28:56.454,1,342,162466,138239,79.0
2026-04-18T19:28:56.465,1,343,162466,138239,79.0
2026-04-18T19:28:56.475,1,344,162485,138270,79.0
2026-04-18T19:28:56.484,1,345,162485,138270,79.0
2026-04-18T19:28:56.494,1,346,162485,138270,79.0
2026-04-18T19:28:56.504,1,347,162485,138270,79.0
2026-04-18T19:28:56.514,1,348,162144,137614,79.0
2026-04-18T19:28:56.524,1,349,162144,137614,79.0
2026-04-18T19:28:56.534,1,350,162144,137614,79.0
2026-04-18T19:28:56.544,1,351,162144,137614,79.0
2026-04-18T19:28:56.554,1,352,161855,137048,79.0
2026-04-18T19:28:56.564,1,353,161855,137048,79.0
2026-04-18T19:28:56.574,1,354,161855,137048,79.0
2026-04-18T19:28:56.584,1,355,161855,137048,79.0
2026-04-18T19:28:56.594,1,356,161595,136534,79.0
2026-04-18T19:28:56.604,1,357,161595,136534,79.0
2026-04-18T19:28:56.614,1,358,161595,136534,79.0
2026-04-18T19:28:56.624,1,359,161595,136534,79.0
2026-04-18T19:28:56.634,1,360,161635,136584,79.0
2026-04-18T19:28:56.644,1,361,161635,136584,79.0
2026-04-18T19:28:56.654,1,362,161635,136584,79.0
2026-04-18T19:28:56.664,1,363,161635,136584,79.0
2026-04-18T19:28:56.674,1,364,161869,137029,79.0
2026-04-18T19:28:56.684,1,365,161869,137029,79.0
2026-04-18T19:28:56.694,1,366,161869,137029,79.0
2026-04-18T19:28:56.704,1,367,161869,137029,79.0
2026-04-18T19:28:56.713,1,368,162154,137531,79.0
2026-04-18T19:28:56.723,1,369,162154,137531,79.0
2026-04-18T19:28:56.733,1,370,162154,137531,79.0
2026-04-18T19:28:56.743,1,371,162154,137531,79.0
2026-04-18T19:28:56.754,1,372,162306,137818,79.0
2026-04-18T19:28:56.764,1,373,162306,137818,79.0
2026-04-18T19:28:56.774,1,374,162306,137818,79.0
2026-04-18T19:28:56.784,1,375,162306,137818,79.0
2026-04-18T19:28:56.794,1,376,162372,137932,79.0
2026-04-18T19:28:56.804,1,377,162372,137932,79.0
2026-04-18T19:28:56.814,1,378,162372,137932,79.0
2026-04-18T19:28:56.823,1,379,162372,137932,79.0
2026-04-18T19:28:56.834,1,380,162195,137620,79.0
2026-04-18T19:28:56.844,1,381,162195,137620,79.0
2026-04-18T19:28:56.854,1,382,162195,137620,79.0
2026-04-18T19:28:56.864,1,383,162195,137620,79.0
2026-04-18T19:28:56.874,1,384,161985,137206,79.0
2026-04-18T19:28:56.884,1,385,161985,137206,79.0
2026-04-18T19:28:56.894,1,386,161985,137206,79.0
2026-04-18T19:28:56.904,1,387,161985,137206,79.0
2026-04-18T19:28:56.913,1,388,161944,137119,79.0
2026-04-18T19:28:56.923,1,389,161944,137119,79.0
2026-04-18T19:28:56.933,1,390,161944,137119,79.0
2026-04-18T19:28:56.943,1,391,161944,137119,79.0
2026-04-18T19:28:56.953,1,392,162055,137358,79.0
2026-04-18T19:28:56.963,1,393,162055,137358,79.0
2026-04-18T19:28:56.973,1,394,162055,137358,79.0
2026-04-18T19:28:56.983,1,395,162055,137358,79.0
2026-04-18T19:28:56.993,1,396,162247,137757,79.0
2026-04-18T19:28:57.003,1,397,162247,137757,79.0
2026-04-18T19:28:57.013,1,398,162247,137757,79.0
2026-04-18T19:28:57.023,1,399,162247,137757,79.0
2026-04-18T19:28:57.033,1,400,162587,138476,79.0
2026-04-18T19:28:57.044,1,401,162587,138476,79.0
2026-04-18T19:28:57.054,1,402,162587,138476,79.0
2026-04-18T19:28:57.064,1,403,162587,138476,79.0
2026-04-18T19:28:57.073,1,404,162879,139051,79.0
2026-04-18T19:28:57.083,1,405,162879,139051,79.0
2026-04-18T19:28:57.093,1,406,162879,139051,79.0
2026-04-18T19:28:57.103,1,407,162879,139051,79.0
2026-04-18T19:28:57.113,1,408,163961,141420,79.0
2026-04-18T19:28:57.123,1,409,163961,141420,79.0
2026-04-18T19:28:57.133,1,410,163961,141420,79.0
2026-04-18T19:28:57.143,1,411,163961,141420,79.0
2026-04-18T19:28:57.154,1,412,165159,144762,79.0
2026-04-18T19:28:57.163,1,413,165159,144762,79.0
2026-04-18T19:28:57.174,1,414,165159,144762,79.0
2026-04-18T19:28:57.183,1,415,165159,144762,79.0
2026-04-18T19:28:57.193,1,416,165819,146663,79.0
2026-04-18T19:28:57.203,1,417,165819,146663,79.0
2026-04-18T19:28:57.213,1,418,165819,146663,79.0
2026-04-18T19:28:57.223,1,419,165819,146663,79.0
2026-04-18T19:28:57.233,1,420,166145,147793,79.0
2026-04-18T19:28:57.243,1,421,166145,147793,79.0
2026-04-18T19:28:57.253,1,422,166145,147793,79.0
2026-04-18T19:28:57.263,1,423,166145,147793,79.0
2026-04-18T19:28:57.273,1,424,166467,149172,79.0
2026-04-18T19:28:57.284,1,425,166467,149172,79.0
2026-04-18T19:28:57.293,1,426,166467,149172,79.0
2026-04-18T19:28:57.303,1,427,166467,149172,79.0
2026-04-18T19:28:57.313,1,428,166604,149852,79.0
2026-04-18T19:28:57.323,1,429,166604,149852,79.0
2026-04-18T19:28:57.333,1,430,166604,149852,79.0
2026-04-18T19:28:57.343,1,431,166604,149852,79.0
2026-04-18T19:28:57.353,1,432,166582,149842,79.0
2026-04-18T19:28:57.363,1,433,166582,149842,79.0
2026-04-18T19:28:57.373,1,434,166582,149842,79.0
2026-04-18T19:28:57.383,1,435,166582,149842,79.0
2026-04-18T19:28:57.393,1,436,166441,149201,79.0
2026-04-18T19:28:57.403,1,437,166441,149201,79.0
2026-04-18T19:28:57.413,1,438,166441,149201,79.0
2026-04-18T19:28:57.422,1,439,166441,149201,79.0
2026-04-18T19:28:57.433,1,440,166158,148001,79.0
2026-04-18T19:28:57.442,1,441,166158,148001,79.0
2026-04-18T19:28:57.453,1,442,166158,148001,79.0
2026-04-18T19:28:57.462,1,443,166158,148001,79.0
2026-04-18T19:28:57.472,1,444,166018,147488,79.0
2026-04-18T19:28:57.482,1,445,166018,147488,79.0
2026-04-18T19:28:57.492,1,446,166018,147488,79.0
2026-04-18T19:28:57.502,1,447,166018,147488,79.0
2026-04-18T19:28:57.513,1,448,165839,147061,79.0
2026-04-18T19:28:57.523,1,449,165839,147061,79.0
2026-04-18T19:28:57.533,1,450,165839,147061,79.0
2026-04-18T19:28:57.543,1,451,165839,147061,79.0
2026-04-18T19:28:57.553,1,452,165671,146650,79.0
2026-04-18T19:28:57.563,1,453,165671,146650,79.0
2026-04-18T19:28:57.573,1,454,165671,146650,79.0
2026-04-18T19:28:57.583,1,455,165671,146650,79.0
2026-04-18T19:28:57.593,1,456,165533,146302,79.0
2026-04-18T19:28:57.603,1,457,165533,146302,79.0
2026-04-18T19:28:57.612,1,458,165533,146302,79.0
2026-04-18T19:28:57.623,1,459,165533,146302,79.0
2026-04-18T19:28:57.633,1,460,165324,145768,79.0
2026-04-18T19:28:57.643,1,461,165324,145768,79.0
2026-04-18T19:28:57.653,1,462,165324,145768,79.0
2026-04-18T19:28:57.663,1,463,165324,145768,79.0
2026-04-18T19:28:57.672,1,464,165169,145418,79.0
2026-04-18T19:28:57.683,1,465,165169,145418,79.0
2026-04-18T19:28:57.693,1,466,165169,145418,79.0
2026-04-18T19:28:57.703,1,467,165169,145418,79.0
2026-04-18T19:28:57.712,1,468,164972,145009,79.0
2026-04-18T19:28:57.722,1,469,164972,145009,79.0
2026-04-18T19:28:57.733,1,470,164972,145009,79.0
2026-04-18T19:28:57.742,1,471,164972,145009,79.0
2026-04-18T19:28:57.752,1,472,164907,144900,79.0
2026-04-18T19:28:57.762,1,473,164907,144900,79.0
2026-04-18T19:28:57.772,1,474,164907,144900,79.0
2026-04-18T19:28:57.782,1,475,164907,144900,79.0
2026-04-18T19:28:57.792,1,476,164775,144579,79.0
2026-04-18T19:28:57.802,1,477,164775,144579,79.0
2026-04-18T19:28:57.813,1,478,164775,144579,79.0
2026-04-18T19:28:57.823,1,479,164775,144579,79.0
2026-04-18T19:28:57.833,1,480,164643,144276,79.0
2026-04-18T19:28:57.842,1,481,164643,144276,79.0
2026-04-18T19:28:57.852,1,482,164643,144276,79.0
2026-04-18T19:28:57.862,1,483,164643,144276,79.0
2026-04-18T19:28:57.873,1,484,164479,143895,79.0
2026-04-18T19:28:57.882,1,485,164479,143895,79.0
2026-04-18T19:28:57.892,1,486,164479,143895,79.0
2026-04-18T19:28:57.903,1,487,164479,143895,79.0
2026-04-18T19:28:57.912,1,488,164381,143595,79.0
2026-04-18T19:28:57.923,1,489,164381,143595,79.0
2026-04-18T19:28:57.932,1,490,164381,143595,79.0
2026-04-18T19:28:57.942,1,491,164381,143595,79.0
2026-04-18T19:28:57.953,1,492,164232,143016,79.0
2026-04-18T19:28:57.962,1,493,164232,143016,79.0
2026-04-18T19:28:57.972,1,494,164232,143016,79.0
2026-04-18T19:28:57.983,1,495,164232,143016,79.0
2026-04-18T19:28:57.992,1,496,164035,142391,79.0
2026-04-18T19:28:58.002,1,497,164035,142391,79.0
2026-04-18T19:28:58.012,1,498,164035,142391,79.0
2026-04-18T19:28:58.022,1,499,164035,142391,79.0
2026-04-18T19:28:58.032,1,500,163764,141714,79.0
2026-04-18T19:28:58.042,1,501,163764,141714,79.0
2026-04-18T19:28:58.052,1,502,163764,141714,79.0
2026-04-18T19:28:58.062,1,503,163764,141714,79.0
2026-04-18T19:28:58.072,1,504,163512,141055,79.0
2026-04-18T19:28:58.082,1,505,163512,141055,79.0
2026-04-18T19:28:58.092,1,506,163512,141055,79.0
2026-04-18T19:28:58.102,1,507,163512,141055,79.0
2026-04-18T19:28:58.112,1,508,163162,140368,79.0
2026-04-18T19:28:58.122,1,509,163162,140368,79.0
2026-04-18T19:28:58.132,1,510,163162,140368,79.0
2026-04-18T19:28:58.142,1,511,163162,140368,79.0
2026-04-18T19:28:58.152,1,512,162816,139658,79.0
2026-04-18T19:28:58.162,1,513,162816,139658,79.0
2026-04-18T19:28:58.172,1,514,162816,139658,79.0
2026-04-18T19:28:58.182,1,515,162816,139658,79.0
2026-04-18T19:28:58.192,1,516,162509,139058,79.0
2026-04-18T19:28:58.202,1,517,162509,139058,79.0
2026-04-18T19:28:58.212,1,518,162509,139058,79.0
2026-04-18T19:28:58.223,1,519,162509,139058,79.0
2026-04-18T19:28:58.232,1,520,162072,138213,79.0
2026-04-18T19:28:58.242,1,521,162072,138213,79.0
2026-04-18T19:28:58.252,1,522,162072,138213,79.0
2026-04-18T19:28:58.262,1,523,162072,138213,79.0
2026-04-18T19:28:58.272,1,524,161705,137534,79.0
2026-04-18T19:28:58.282,1,525,161705,137534,79.0
2026-04-18T19:28:58.292,1,526,161705,137534,79.0
2026-04-18T19:28:58.302,1,527,161705,137534,79.0
2026-04-18T19:28:58.312,1,528,161377,136935,79.0
2026-04-18T19:28:58.322,1,529,161377,136935,79.0
2026-04-18T19:28:58.332,1,530,161377,136935,79.0
2026-04-18T19:28:58.342,1,531,161377,136935,79.0
2026-04-18T19:28:58.352,1,532,161109,136420,79.0
2026-04-18T19:28:58.362,1,533,161109,136420,79.0
2026-04-18T19:28:58.372,1,534,161109,136420,79.0
2026-04-18T19:28:58.382,1,535,161109,136420,79.0
2026-04-18T19:28:58.392,1,536,160862,135928,79.0
2026-04-18T19:28:58.402,1,537,160862,135928,79.0
2026-04-18T19:28:58.412,1,538,160862,135928,79.0
2026-04-18T19:28:58.422,1,539,160862,135928,79.0
2026-04-18T19:28:58.432,1,540,160672,135551,79.0
2026-04-18T19:28:58.442,1,541,160672,135551,79.0
2026-04-18T19:28:58.452,1,542,160672,135551,79.0
2026-04-18T19:28:58.462,1,543,160672,135551,79.0
2026-04-18T19:28:58.472,1,544,160512,135175,79.0
2026-04-18T19:28:58.482,1,545,160512,135175,79.0
2026-04-18T19:28:58.492,1,546,160512,135175,79.0
2026-04-18T19:28:58.502,1,547,160512,135175,79.0
2026-04-18T19:28:58.512,1,548,160292,134693,79.0
2026-04-18T19:28:58.522,1,549,160292,134693,79.0
2026-04-18T19:28:58.532,1,550,160292,134693,79.0
2026-04-18T19:28:58.542,1,551,160292,134693,79.0
2026-04-18T19:28:58.552,1,552,160053,134194,79.0
2026-04-18T19:28:58.562,1,553,160053,134194,79.0
2026-04-18T19:28:58.571,1,554,160053,134194,79.0
2026-04-18T19:28:58.581,1,555,160053,134194,79.0
2026-04-18T19:28:58.592,1,556,159754,133570,79.0
2026-04-18T19:28:58.601,1,557,159754,133570,79.0
2026-04-18T19:28:58.612,1,558,159754,133570,79.0
2026-04-18T19:28:58.622,1,559,159754,133570,79.0
2026-04-18T19:28:58.632,1,560,159555,133220,79.0
2026-04-18T19:28:58.641,1,561,159555,133220,79.0
2026-04-18T19:28:58.651,1,562,159555,133220,79.0
2026-04-18T19:28:58.661,1,563,159555,133220,79.0
2026-04-18T19:28:58.672,1,564,159394,132931,79.0
2026-04-18T19:28:58.681,1,565,159394,132931,79.0
2026-04-18T19:28:58.691,1,566,159394,132931,79.0
2026-04-18T19:28:58.702,1,567,159394,132931,79.0
2026-04-18T19:28:58.711,1,568,159311,132785,79.0
2026-04-18T19:28:58.722,1,569,159311,132785,79.0
2026-04-18T19:28:58.732,1,570,159311,132785,79.0
2026-04-18T19:28:58.741,1,571,159311,132785,79.0
2026-04-18T19:28:58.751,1,572,159230,132629,79.0
2026-04-18T19:28:58.761,1,573,159230,132629,79.0
2026-04-18T19:28:58.771,1,574,159230,132629,79.0
2026-04-18T19:28:58.781,1,575,159230,132629,79.0
2026-04-18T19:28:58.791,1,576,159373,132931,79.0
2026-04-18T19:28:58.801,1,577,159373,132931,79.0
2026-04-18T19:28:58.811,1,578,159373,132931,79.0
2026-04-18T19:28:58.821,1,579,159373,132931,79.0
2026-04-18T19:28:58.831,1,580,159317,132860,79.0
2026-04-18T19:28:58.841,1,581,159317,132860,79.0
2026-04-18T19:28:58.851,1,582,159317,132860,79.0
2026-04-18T19:28:58.861,1,583,159317,132860,79.0
2026-04-18T19:28:58.871,1,584,159266,132793,79.0
2026-04-18T19:28:58.881,1,585,159266,132793,79.0
2026-04-18T19:28:58.891,1,586,159266,132793,79.0
2026-04-18T19:28:58.901,1,587,159266,132793,79.0
2026-04-18T19:28:58.911,1,588,159321,132907,79.0
2026-04-18T19:28:58.921,1,589,159321,132907,79.0
2026-04-18T19:28:58.931,1,590,159321,132907,79.0
2026-04-18T19:28:58.941,1,591,159321,132907,79.0
2026-04-18T19:28:58.951,1,592,159397,133074,79.0
2026-04-18T19:28:58.961,1,593,159397,133074,79.0
2026-04-18T19:28:58.971,1,594,159397,133074,79.0
2026-04-18T19:28:58.981,1,595,159397,133074,79.0
2026-04-18T19:28:58.991,1,596,159386,133065,79.0
2026-04-18T19:28:59.001,1,597,159386,133065,79.0
2026-04-18T19:28:59.010,1,598,159386,133065,79.0
2026-04-18T19:28:59.020,1,599,159386,133065,79.0
2026-04-18T19:28:59.030,1,600,159315,132974,79.0
2026-04-18T19:28:59.041,1,601,159315,132974,79.0
2026-04-18T19:28:59.051,1,602,159315,132974,79.0
2026-04-18T19:28:59.061,1,603,159315,132974,79.0
2026-04-18T19:28:59.071,1,604,159284,132913,79.0
2026-04-18T19:28:59.081,1,605,159284,132913,79.0
2026-04-18T19:28:59.090,1,606,159284,132913,79.0
2026-04-18T19:28:59.100,1,607,159284,132913,79.0
2026-04-18T19:28:59.111,1,608,159193,132812,79.0
2026-04-18T19:28:59.121,1,609,159193,132812,79.0
2026-04-18T19:28:59.130,1,610,159193,132812,79.0
2026-04-18T19:28:59.141,1,611,159193,132812,79.0
2026-04-18T19:28:59.150,1,612,159148,132736,79.0
2026-04-18T19:28:59.160,1,613,159148,132736,79.0
2026-04-18T19:28:59.170,1,614,159148,132736,79.0
2026-04-18T19:28:59.181,1,615,159148,132736,79.0
2026-04-18T19:28:59.191,1,616,159068,132597,79.0
2026-04-18T19:28:59.201,1,617,159068,132597,79.0
2026-04-18T19:28:59.211,1,618,159068,132597,79.0
2026-04-18T19:28:59.220,1,619,159068,132597,79.0
2026-04-18T19:28:59.231,1,620,159040,132547,79.0
2026-04-18T19:28:59.241,1,621,159040,132547,79.0
2026-04-18T19:28:59.251,1,622,159040,132547,79.0
2026-04-18T19:28:59.261,1,623,159040,132547,79.0
2026-04-18T19:28:59.270,1,624,159050,132543,79.0
2026-04-18T19:28:59.281,1,625,159050,132543,79.0
2026-04-18T19:28:59.290,1,626,159050,132543,79.0
2026-04-18T19:28:59.300,1,627,159050,132543,79.0
2026-04-18T19:28:59.310,1,628,158990,132396,79.0
2026-04-18T19:28:59.320,1,629,158990,132396,79.0
2026-04-18T19:28:59.330,1,630,158990,132396,79.0
2026-04-18T19:28:59.340,1,631,158990,132396,79.0
2026-04-18T19:28:59.350,1,632,159028,132501,79.0
2026-04-18T19:28:59.360,1,633,159028,132501,79.0
2026-04-18T19:28:59.370,1,634,159028,132501,79.0
2026-04-18T19:28:59.380,1,635,159028,132501,79.0
2026-04-18T19:28:59.390,1,636,159157,132696,79.0
2026-04-18T19:28:59.400,1,637,159157,132696,79.0
2026-04-18T19:28:59.410,1,638,159157,132696,79.0
2026-04-18T19:28:59.421,1,639,159157,132696,79.0
2026-04-18T19:28:59.431,1,640,159320,132981,79.0
2026-04-18T19:28:59.440,1,641,159320,132981,79.0
2026-04-18T19:28:59.450,1,642,159320,132981,79.0
2026-04-18T19:28:59.460,1,643,159320,132981,79.0
2026-04-18T19:28:59.470,1,644,159568,133428,79.0
2026-04-18T19:28:59.480,1,645,159568,133428,79.0
2026-04-18T19:28:59.490,1,646,159568,133428,79.0
2026-04-18T19:28:59.500,1,647,159568,133428,79.0
2026-04-18T19:28:59.510,1,648,159768,133830,79.0
2026-04-18T19:28:59.520,1,649,159768,133830,79.0
2026-04-18T19:28:59.530,1,650,159768,133830,79.0
2026-04-18T19:28:59.540,1,651,159768,133830,79.0
2026-04-18T19:28:59.550,1,652,159916,134138,79.0
2026-04-18T19:28:59.560,1,653,159916,134138,79.0
2026-04-18T19:28:59.570,1,654,159916,134138,79.0
2026-04-18T19:28:59.580,1,655,159916,134138,79.0
2026-04-18T19:28:59.590,1,656,160049,134422,79.0
2026-04-18T19:28:59.600,1,657,160049,134422,79.0
2026-04-18T19:28:59.610,1,658,160049,134422,79.0
2026-04-18T19:28:59.620,1,659,160049,134422,79.0
2026-04-18T19:28:59.630,1,660,160140,134607,79.0
2026-04-18T19:28:59.640,1,661,160140,134607,79.0
2026-04-18T19:28:59.650,1,662,160140,134607,79.0
2026-04-18T19:28:59.659,1,663,160140,134607,79.0
2026-04-18T19:28:59.670,1,664,160366,135002,79.0
2026-04-18T19:28:59.679,1,665,160366,135002,79.0
2026-04-18T19:28:59.690,1,666,160366,135002,79.0
2026-04-18T19:28:59.699,1,667,160366,135002,79.0
2026-04-18T19:28:59.710,1,668,160614,135407,79.0
2026-04-18T19:28:59.719,1,669,160614,135407,79.0
2026-04-18T19:28:59.730,1,670,160614,135407,79.0
2026-04-18T19:28:59.739,1,671,160614,135407,79.0
2026-04-18T19:28:59.750,1,672,160865,135900,79.0
2026-04-18T19:28:59.760,1,673,160865,135900,79.0
2026-04-18T19:28:59.770,1,674,160865,135900,79.0
2026-04-18T19:28:59.780,1,675,160865,135900,79.0
2026-04-18T19:28:59.790,1,676,160982,136114,79.0
2026-04-18T19:28:59.800,1,677,160982,136114,79.0
2026-04-18T19:28:59.810,1,678,160982,136114,79.0
2026-04-18T19:28:59.819,1,679,160982,136114,79.0
2026-04-18T19:28:59.830,1,680,161118,136339,79.0
2026-04-18T19:28:59.840,1,681,161118,136339,79.0
2026-04-18T19:28:59.850,1,682,161118,136339,79.0
2026-04-18T19:28:59.860,1,683,161118,136339,79.0
2026-04-18T19:28:59.870,1,684,161213,136492,79.0
2026-04-18T19:28:59.880,1,685,161213,136492,79.0
2026-04-18T19:28:59.890,1,686,161213,136492,79.0
2026-04-18T19:28:59.900,1,687,161213,136492,79.0
2026-04-18T19:28:59.909,1,688,161246,136548,79.0
2026-04-18T19:28:59.920,1,689,161246,136548,79.0
2026-04-18T19:28:59.930,1,690,161246,136548,79.0
2026-04-18T19:28:59.940,1,691,161246,136548,79.0
2026-04-18T19:28:59.949,1,692,161339,136697,79.0
2026-04-18T19:28:59.960,1,693,161339,136697,79.0
2026-04-18T19:28:59.970,1,694,161339,136697,79.0
2026-04-18T19:28:59.980,1,695,161339,136697,79.0
2026-04-18T19:28:59.990,1,696,161513,137038,79.0
2026-04-18T19:29:00.000,1,697,161513,137038,79.0
2026-04-18T19:29:00.009,1,698,161513,137038,79.0
2026-04-18T19:29:00.020,1,699,161513,137038,79.0
2026-04-18T19:29:00.030,1,700,161656,137263,79.0
2026-04-18T19:29:00.040,1,701,161656,137263,79.0
2026-04-18T19:29:00.049,1,702,161656,137263,79.0
2026-04-18T19:29:00.060,1,703,161656,137263,79.0
2026-04-18T19:29:00.069,1,704,161735,137416,79.0
2026-04-18T19:29:00.080,1,705,161735,137416,79.0
2026-04-18T19:29:00.089,1,706,161735,137416,79.0
2026-04-18T19:29:00.099,1,707,161735,137416,79.0
2026-04-18T19:29:00.109,1,708,161907,137783,79.0
2026-04-18T19:29:00.119,1,709,161907,137783,79.0
2026-04-18T19:29:00.129,1,710,161907,137783,79.0
2026-04-18T19:29:00.139,1,711,161907,137783,79.0
2026-04-18T19:29:00.149,1,712,162091,138097,79.0
2026-04-18T19:29:00.159,1,713,162091,138097,79.0
2026-04-18T19:29:00.170,1,714,162091,138097,79.0
2026-04-18T19:29:00.179,1,715,162091,138097,79.0
2026-04-18T19:29:00.189,1,716,162455,138791,79.0
2026-04-18T19:29:00.199,1,717,162455,138791,79.0
2026-04-18T19:29:00.209,1,718,162455,138791,79.0
2026-04-18T19:29:00.220,1,719,162455,138791,79.0
2026-04-18T19:29:00.230,1,720,162919,139680,79.0
2026-04-18T19:29:00.239,1,721,162919,139680,79.0
2026-04-18T19:29:00.250,1,722,162919,139680,79.0
2026-04-18T19:29:00.259,1,723,162919,139680,79.0
2026-04-18T19:29:00.269,1,724,163526,140571,79.0
2026-04-18T19:29:00.279,1,725,163526,140571,79.0
2026-04-18T19:29:00.289,1,726,163526,140571,79.0
2026-04-18T19:29:00.299,1,727,163526,140571,79.0
2026-04-18T19:29:00.309,1,728,163721,140993,79.0
2026-04-18T19:29:00.319,1,729,163721,140993,79.0
2026-04-18T19:29:00.330,1,730,163721,140993,79.0
2026-04-18T19:29:00.339,1,731,163721,140993,79.0
2026-04-18T19:29:00.349,1,732,163812,141338,79.0
2026-04-18T19:29:00.359,1,733,163812,141338,79.0
2026-04-18T19:29:00.369,1,734,163812,141338,79.0
2026-04-18T19:29:00.380,1,735,163812,141338,79.0
2026-04-18T19:29:00.389,1,736,163949,141782,79.0
2026-04-18T19:29:00.399,1,737,163949,141782,79.0
2026-04-18T19:29:00.409,1,738,163949,141782,79.0
2026-04-18T19:29:00.419,1,739,163949,141782,79.0
2026-04-18T19:29:00.429,1,740,164062,142118,79.0
2026-04-18T19:29:00.440,1,741,164062,142118,79.0
2026-04-18T19:29:00.449,1,742,164062,142118,79.0
2026-04-18T19:29:00.459,1,743,164062,142118,79.0
2026-04-18T19:29:00.469,1,744,164103,142245,79.0
2026-04-18T19:29:00.479,1,745,164103,142245,79.0
2026-04-18T19:29:00.489,1,746,164103,142245,79.0
2026-04-18T19:29:00.499,1,747,164103,142245,79.0
2026-04-18T19:29:00.509,1,748,164080,142273,79.0
2026-04-18T19:29:00.519,1,749,164080,142273,79.0
2026-04-18T19:29:00.529,1,750,164080,142273,79.0
2026-04-18T19:29:00.539,1,751,164080,142273,79.0
2026-04-18T19:29:00.549,1,752,164012,142188,79.0
2026-04-18T19:29:00.559,1,753,164012,142188,79.0
2026-04-18T19:29:00.569,1,754,164012,142188,79.0
2026-04-18T19:29:00.579,1,755,164012,142188,79.0
2026-04-18T19:29:00.589,1,756,163998,142216,79.0
2026-04-18T19:29:00.599,1,757,163998,142216,79.0
2026-04-18T19:29:00.609,1,758,163998,142216,79.0
2026-04-18T19:29:00.619,1,759,163998,142216,79.0
2026-04-18T19:29:00.629,1,760,164053,142358,79.0
2026-04-18T19:29:00.639,1,761,164053,142358,79.0
2026-04-18T19:29:00.649,1,762,164053,142358,79.0
2026-04-18T19:29:00.659,1,763,164053,142358,79.0
2026-04-18T19:29:00.669,1,764,164035,142332,79.0
2026-04-18T19:29:00.679,1,765,164035,142332,79.0
2026-04-18T19:29:00.689,1,766,164035,142332,79.0
2026-04-18T19:29:00.699,1,767,164035,142332,79.0
2026-04-18T19:29:00.709,1,768,164039,142379,79.0
2026-04-18T19:29:00.719,1,769,164039,142379,79.0
2026-04-18T19:29:00.729,1,770,164039,142379,79.0
2026-04-18T19:29:00.739,1,771,164039,142379,79.0
2026-04-18T19:29:00.749,1,772,164098,142501,79.0
2026-04-18T19:29:00.758,1,773,164098,142501,79.0
2026-04-18T19:29:00.769,1,774,164098,142501,79.0
2026-04-18T19:29:00.779,1,775,164098,142501,79.0
2026-04-18T19:29:00.789,1,776,164106,142495,79.0
2026-04-18T19:29:00.799,1,777,164106,142495,79.0
2026-04-18T19:29:00.809,1,778,164106,142495,79.0
2026-04-18T19:29:00.819,1,779,164106,142495,79.0
2026-04-18T19:29:00.829,1,780,164097,142403,79.0
2026-04-18T19:29:00.838,1,781,164097,142403,79.0
2026-04-18T19:29:00.848,1,782,164097,142403,79.0
2026-04-18T19:29:00.858,1,783,164097,142403,79.0
2026-04-18T19:29:00.869,1,784,164158,142522,79.0
2026-04-18T19:29:00.878,1,785,164158,142522,79.0
2026-04-18T19:29:00.889,1,786,164158,142522,79.0
2026-04-18T19:29:00.899,1,787,164158,142522,79.0
2026-04-18T19:29:00.908,1,788,164345,142871,79.0
2026-04-18T19:29:00.919,1,789,164345,142871,79.0
2026-04-18T19:29:00.928,1,790,164345,142871,79.0
2026-04-18T19:29:00.938,1,791,164345,142871,79.0
2026-04-18T19:29:00.948,1,792,164648,143461,79.0
2026-04-18T19:29:00.959,1,793,164648,143461,79.0
2026-04-18T19:29:00.969,1,794,164648,143461,79.0
2026-04-18T19:29:00.978,1,795,164648,143461,79.0
2026-04-18T19:29:00.989,1,796,165090,144595,79.0
2026-04-18T19:29:00.998,1,797,165090,144595,79.0
2026-04-18T19:29:01.008,1,798,165090,144595,79.0
2026-04-18T19:29:01.019,1,799,165090,144595,79.0
2026-04-18T19:29:01.028,1,800,165445,145518,79.0
2026-04-18T19:29:01.038,1,801,165445,145518,79.0
2026-04-18T19:29:01.048,1,802,165445,145518,79.0
2026-04-18T19:29:01.058,1,803,165445,145518,79.0
2026-04-18T19:29:01.068,1,804,165689,146087,79.0
2026-04-18T19:29:01.078,1,805,165689,146087,79.0
2026-04-18T19:29:01.088,1,806,165689,146087,79.0
2026-04-18T19:29:01.098,1,807,165689,146087,79.0
2026-04-18T19:29:01.108,1,808,165773,146410,79.0
2026-04-18T19:29:01.118,1,809,165773,146410,79.0
2026-04-18T19:29:01.128,1,810,165773,146410,79.0
2026-04-18T19:29:01.139,1,811,165773,146410,79.0
2026-04-18T19:29:01.148,1,812,165792,146480,79.0
2026-04-18T19:29:01.158,1,813,165792,146480,79.0
2026-04-18T19:29:01.168,1,814,165792,146480,79.0
2026-04-18T19:29:01.178,1,815,165792,146480,79.0
2026-04-18T19:29:01.188,1,816,165844,146532,79.0
2026-04-18T19:29:01.198,1,817,165844,146532,79.0
2026-04-18T19:29:01.208,1,818,165844,146532,79.0
2026-04-18T19:29:01.218,1,819,165844,146532,79.0
2026-04-18T19:29:01.228,1,820,165884,146569,79.0
2026-04-18T19:29:01.238,1,821,165884,146569,79.0
2026-04-18T19:29:01.248,1,822,165884,146569,79.0
2026-04-18T19:29:01.258,1,823,165884,146569,79.0
2026-04-18T19:29:01.268,1,824,165830,146392,79.0
2026-04-18T19:29:01.278,1,825,165830,146392,79.0
2026-04-18T19:29:01.288,1,826,165830,146392,79.0
2026-04-18T19:29:01.298,1,827,165830,146392,79.0
2026-04-18T19:29:01.308,1,828,165683,146017,79.0
2026-04-18T19:29:01.318,1,829,165683,146017,79.0
2026-04-18T19:29:01.328,1,830,165683,146017,79.0
2026-04-18T19:29:01.338,1,831,165683,146017,79.0
2026-04-18T19:29:01.348,1,832,165498,145555,79.0
2026-04-18T19:29:01.358,1,833,165498,145555,79.0
2026-04-18T19:29:01.368,1,834,165498,145555,79.0
2026-04-18T19:29:01.378,1,835,165498,145555,79.0
2026-04-18T19:29:01.388,1,836,165288,145050,79.0
2026-04-18T19:29:01.398,1,837,165288,145050,79.0
2026-04-18T19:29:01.408,1,838,165288,145050,79.0
2026-04-18T19:29:01.418,1,839,165288,145050,79.0
2026-04-18T19:29:01.428,1,840,165277,145039,79.0
2026-04-18T19:29:01.438,1,841,165277,145039,79.0
2026-04-18T19:29:01.448,1,842,165277,145039,79.0
2026-04-18T19:29:01.458,1,843,165277,145039,79.0
2026-04-18T19:29:01.468,1,844,165347,145212,79.0
2026-04-18T19:29:01.478,1,845,165347,145212,79.0
2026-04-18T19:29:01.488,1,846,165347,145212,79.0
2026-04-18T19:29:01.497,1,847,165347,145212,79.0
2026-04-18T19:29:01.508,1,848,165475,145523,79.0
2026-04-18T19:29:01.518,1,849,165475,145523,79.0
2026-04-18T19:29:01.528,1,850,165475,145523,79.0
2026-04-18T19:29:01.538,1,851,165475,145523,79.0
2026-04-18T19:29:01.548,1,852,165538,145630,79.0
2026-04-18T19:29:01.558,1,853,165538,145630,79.0
2026-04-18T19:29:01.568,1,854,165538,145630,79.0
2026-04-18T19:29:01.577,1,855,165538,145630,79.0
2026-04-18T19:29:01.588,1,856,165550,145612,79.0
2026-04-18T19:29:01.597,1,857,165550,145612,79.0
2026-04-18T19:29:01.607,1,858,165550,145612,79.0
2026-04-18T19:29:01.618,1,859,165550,145612,79.0
2026-04-18T19:29:01.627,1,860,165652,145854,79.0
2026-04-18T19:29:01.637,1,861,165652,145854,79.0
2026-04-18T19:29:01.648,1,862,165652,145854,79.0
2026-04-18T19:29:01.658,1,863,165652,145854,79.0
2026-04-18T19:29:01.668,1,864,165804,146095,79.0
2026-04-18T19:29:01.678,1,865,165804,146095,79.0
2026-04-18T19:29:01.687,1,866,165804,146095,79.0
2026-04-18T19:29:01.698,1,867,165804,146095,79.0
2026-04-18T19:29:01.708,1,868,165925,146355,79.0
2026-04-18T19:29:01.717,1,869,165925,146355,79.0
2026-04-18T19:29:01.727,1,870,165925,146355,79.0
2026-04-18T19:29:01.737,1,871,165925,146355,79.0
2026-04-18T19:29:01.748,1,872,166036,146654,79.0
2026-04-18T19:29:01.757,1,873,166036,146654,79.0
2026-04-18T19:29:01.767,1,874,166036,146654,79.0
2026-04-18T19:29:01.778,1,875,166036,146654,79.0
2026-04-18T19:29:01.788,1,876,166140,146904,79.0
2026-04-18T19:29:01.798,1,877,166140,146904,79.0
2026-04-18T19:29:01.807,1,878,166140,146904,79.0
2026-04-18T19:29:01.818,1,879,166140,146904,79.0
2026-04-18T19:29:01.827,1,880,166137,146944,79.0
2026-04-18T19:29:01.837,1,881,166137,146944,79.0
2026-04-18T19:29:01.847,1,882,166137,146944,79.0
2026-04-18T19:29:01.857,1,883,166137,146944,79.0
2026-04-18T19:29:01.867,1,884,166087,146903,79.0
2026-04-18T19:29:01.877,1,885,166087,146903,79.0
2026-04-18T19:29:01.887,1,886,166087,146903,79.0
2026-04-18T19:29:01.897,1,887,166087,146903,79.0
2026-04-18T19:29:01.907,1,888,166091,146869,79.0
2026-04-18T19:29:01.917,1,889,166091,146869,79.0
2026-04-18T19:29:01.927,1,890,166091,146869,79.0
2026-04-18T19:29:01.937,1,891,166091,146869,79.0
2026-04-18T19:29:01.947,1,892,166072,146718,79.0
2026-04-18T19:29:01.957,1,893,166072,146718,79.0
2026-04-18T19:29:01.967,1,894,166072,146718,79.0
2026-04-18T19:29:01.977,1,895,166072,146718,79.0
2026-04-18T19:29:01.987,1,896,165906,146353,79.0
2026-04-18T19:29:01.997,1,897,165906,146353,79.0
2026-04-18T19:29:02.007,1,898,165906,146353,79.0
2026-04-18T19:29:02.017,1,899,165906,146353,79.0
2026-04-18T19:29:02.027,1,900,165570,145544,79.0
2026-04-18T19:29:02.037,1,901,165570,145544,79.0
2026-04-18T19:29:02.047,1,902,165570,145544,79.0
2026-04-18T19:29:02.057,1,903,165570,145544,79.0
2026-04-18T19:29:02.067,1,904,165099,144409,79.0
2026-04-18T19:29:02.077,1,905,165099,144409,79.0
2026-04-18T19:29:02.087,1,906,165099,144409,79.0
2026-04-18T19:29:02.097,1,907,165099,144409,79.0
2026-04-18T19:29:02.107,1,908,164587,143213,79.0
2026-04-18T19:29:02.117,1,909,164587,143213,79.0
2026-04-18T19:29:02.127,1,910,164587,143213,79.0
2026-04-18T19:29:02.137,1,911,164587,143213,79.0
2026-04-18T19:29:02.147,1,912,164123,142165,79.0
2026-04-18T19:29:02.157,1,913,164123,142165,79.0
2026-04-18T19:29:02.167,1,914,164123,142165,79.0
2026-04-18T19:29:02.177,1,915,164123,142165,79.0
2026-04-18T19:29:02.187,1,916,163619,141065,79.0
2026-04-18T19:29:02.197,1,917,163619,141065,79.0
2026-04-18T19:29:02.207,1,918,163619,141065,79.0
2026-04-18T19:29:02.217,1,919,163619,141065,79.0
2026-04-18T19:29:02.226,1,920,163157,140114,79.0
2026-04-18T19:29:02.236,1,921,163157,140114,79.0
2026-04-18T19:29:02.246,1,922,163157,140114,79.0
2026-04-18T19:29:02.257,1,923,163157,140114,79.0
2026-04-18T19:29:02.267,1,924,162816,139410,79.0
2026-04-18T19:29:02.276,1,925,162816,139410,79.0
2026-04-18T19:29:02.287,1,926,162816,139410,79.0
2026-04-18T19:29:02.297,1,927,162816,139410,79.0
2026-04-18T19:29:02.307,1,928,162409,138584,79.0
2026-04-18T19:29:02.317,1,929,162409,138584,79.0
2026-04-18T19:29:02.327,1,930,162409,138584,79.0
2026-04-18T19:29:02.337,1,931,162409,138584,79.0
2026-04-18T19:29:02.347,1,932,161990,137741,79.0
2026-04-18T19:29:02.356,1,933,161990,137741,79.0
2026-04-18T19:29:02.367,1,934,161990,137741,79.0
2026-04-18T19:29:02.377,1,935,161990,137741,79.0
2026-04-18T19:29:02.387,1,936,161788,137356,79.0
2026-04-18T19:29:02.397,1,937,161788,137356,79.0
2026-04-18T19:29:02.407,1,938,161788,137356,79.0
2026-04-18T19:29:02.417,1,939,161788,137356,79.0
2026-04-18T19:29:02.427,1,940,161715,137128,79.0
2026-04-18T19:29:02.436,1,941,161715,137128,79.0
2026-04-18T19:29:02.446,1,942,161715,137128,79.0
2026-04-18T19:29:02.457,1,943,161715,137128,79.0
2026-04-18T19:29:02.467,1,944,161601,136891,79.0
2026-04-18T19:29:02.476,1,945,161601,136891,79.0
2026-04-18T19:29:02.487,1,946,161601,136891,79.0
2026-04-18T19:29:02.496,1,947,161601,136891,79.0
2026-04-18T19:29:02.507,1,948,161534,136771,79.0
2026-04-18T19:29:02.516,1,949,161534,136771,79.0
2026-04-18T19:29:02.526,1,950,161534,136771,79.0
2026-04-18T19:29:02.536,1,951,161534,136771,79.0
2026-04-18T19:29:02.546,1,952,161446,136662,79.0
2026-04-18T19:29:02.556,1,953,161446,136662,79.0
2026-04-18T19:29:02.566,1,954,161446,136662,79.0
2026-04-18T19:29:02.576,1,955,161446,136662,79.0
2026-04-18T19:29:02.586,1,956,161212,136283,79.0
2026-04-18T19:29:02.597,1,957,161212,136283,79.0
2026-04-18T19:29:02.606,1,958,161212,136283,79.0
2026-04-18T19:29:02.616,1,959,161212,136283,79.0
2026-04-18T19:29:02.626,1,960,161013,135970,79.0
2026-04-18T19:29:02.636,1,961,161013,135970,79.0
2026-04-18T19:29:02.646,1,962,161013,135970,79.0
2026-04-18T19:29:02.656,1,963,161013,135970,79.0
2026-04-18T19:29:02.666,1,964,160911,135776,79.0
2026-04-18T19:29:02.676,1,965,160911,135776,79.0
2026-04-18T19:29:02.686,1,966,160911,135776,79.0
2026-04-18T19:29:02.697,1,967,160911,135776,79.0
2026-04-18T19:29:02.706,1,968,160806,135569,79.0
2026-04-18T19:29:02.716,1,969,160806,135569,79.0
2026-04-18T19:29:02.726,1,970,160806,135569,79.0
2026-04-18T19:29:02.736,1,971,160806,135569,79.0
2026-04-18T19:29:02.746,1,972,160647,135259,79.0
2026-04-18T19:29:02.756,1,973,160647,135259,79.0
2026-04-18T19:29:02.766,1,974,160647,135259,79.0
2026-04-18T19:29:02.776,1,975,160647,135259,79.0
2026-04-18T19:29:02.786,1,976,160528,135029,79.0
2026-04-18T19:29:02.796,1,977,160528,135029,79.0
2026-04-18T19:29:02.806,1,978,160528,135029,79.0
2026-04-18T19:29:02.816,1,979,160528,135029,79.0
2026-04-18T19:29:02.826,1,980,160465,134900,79.0
2026-04-18T19:29:02.836,1,981,160465,134900,79.0
2026-04-18T19:29:02.846,1,982,160465,134900,79.0
2026-04-18T19:29:02.856,1,983,160465,134900,79.0
2026-04-18T19:29:02.866,1,984,160462,134914,79.0
2026-04-18T19:29:02.876,1,985,160462,134914,79.0
2026-04-18T19:29:02.886,1,986,160462,134914,79.0
2026-04-18T19:29:02.896,1,987,160462,134914,79.0
2026-04-18T19:29:02.906,1,988,160527,135060,79.0
2026-04-18T19:29:02.916,1,989,160527,135060,79.0
2026-04-18T19:29:02.926,1,990,160527,135060,79.0
2026-04-18T19:29:02.936,1,991,160527,135060,79.0
2026-04-18T19:29:02.946,1,992,160534,135127,79.0
2026-04-18T19:29:02.956,1,993,160534,135127,79.0
2026-04-18T19:29:02.966,1,994,160534,135127,79.0
2026-04-18T19:29:02.976,1,995,160534,135127,79.0
2026-04-18T19:29:02.985,1,996,160633,135309,79.0
2026-04-18T19:29:02.995,1,997,160633,135309,79.0
2026-04-18T19:29:03.006,1,998,160633,135309,79.0
2026-04-18T19:29:03.016,1,999,160633,135309,79.0
2026-04-18T19:29:03.026,1,1000,160689,135407,79.0
2026-04-18T19:29:03.036,1,1001,160689,135407,79.0
2026-04-18T19:29:06.042,2,0,159697,133870,80.0
2026-04-18T19:29:06.052,2,1,159697,133870,80.0
2026-04-18T19:29:06.062,2,2,159838,134139,80.0
2026-04-18T19:29:06.071,2,3,159838,134139,80.0
2026-04-18T19:29:06.082,2,4,159838,134139,80.0
2026-04-18T19:29:06.092,2,5,159838,134139,80.0
2026-04-18T19:29:06.102,2,6,159798,134010,80.0
2026-04-18T19:29:06.112,2,7,159798,134010,80.0
2026-04-18T19:29:06.122,2,8,159798,134010,80.0
2026-04-18T19:29:06.132,2,9,159798,134010,80.0
2026-04-18T19:29:06.142,2,10,159763,133898,80.0
2026-04-18T19:29:06.151,2,11,159763,133898,80.0
2026-04-18T19:29:06.161,2,12,159763,133898,80.0
2026-04-18T19:29:06.171,2,13,159763,133898,80.0
2026-04-18T19:29:06.182,2,14,159921,134217,80.0
2026-04-18T19:29:06.192,2,15,159921,134217,80.0
2026-04-18T19:29:06.202,2,16,159921,134217,80.0
2026-04-18T19:29:06.212,2,17,159921,134217,80.0
2026-04-18T19:29:06.221,2,18,160139,134584,80.0
2026-04-18T19:29:06.232,2,19,160139,134584,80.0
2026-04-18T19:29:06.241,2,20,160139,134584,80.0
2026-04-18T19:29:06.251,2,21,160139,134584,80.0
2026-04-18T19:29:06.261,2,22,160218,134688,80.0
2026-04-18T19:29:06.271,2,23,160218,134688,80.0
2026-04-18T19:29:06.281,2,24,160218,134688,80.0
2026-04-18T19:29:06.291,2,25,160218,134688,80.0
2026-04-18T19:29:06.301,2,26,160351,134904,80.0
2026-04-18T19:29:06.311,2,27,160351,134904,80.0
2026-04-18T19:29:06.321,2,28,160351,134904,80.0
2026-04-18T19:29:06.331,2,29,160351,134904,80.0
2026-04-18T19:29:06.341,2,30,160482,135110,80.0
2026-04-18T19:29:06.351,2,31,160482,135110,80.0
2026-04-18T19:29:06.361,2,32,160482,135110,80.0
2026-04-18T19:29:06.371,2,33,160482,135110,80.0
2026-04-18T19:29:06.381,2,34,160570,135262,80.0
2026-04-18T19:29:06.391,2,35,160570,135262,80.0
2026-04-18T19:29:06.401,2,36,160570,135262,80.0
2026-04-18T19:29:06.411,2,37,160570,135262,80.0
2026-04-18T19:29:06.421,2,38,160701,135514,80.0
2026-04-18T19:29:06.431,2,39,160701,135514,80.0
2026-04-18T19:29:06.442,2,40,160701,135514,80.0
2026-04-18T19:29:06.452,2,41,160701,135514,80.0
2026-04-18T19:29:06.461,2,42,160796,135657,80.0
2026-04-18T19:29:06.471,2,43,160796,135657,80.0
2026-04-18T19:29:06.481,2,44,160796,135657,80.0
2026-04-18T19:29:06.491,2,45,160796,135657,80.0
2026-04-18T19:29:06.501,2,46,160885,135803,80.0
2026-04-18T19:29:06.511,2,47,160885,135803,80.0
2026-04-18T19:29:06.521,2,48,160885,135803,80.0
2026-04-18T19:29:06.531,2,49,160885,135803,80.0
2026-04-18T19:29:06.541,2,50,160908,135821,80.0
2026-04-18T19:29:06.551,2,51,160908,135821,80.0
2026-04-18T19:29:06.561,2,52,160908,135821,80.0
2026-04-18T19:29:06.572,2,53,160908,135821,80.0
2026-04-18T19:29:06.581,2,54,160925,135846,80.0
2026-04-18T19:29:06.591,2,55,160925,135846,80.0
2026-04-18T19:29:06.601,2,56,160925,135846,80.0
2026-04-18T19:29:06.611,2,57,160925,135846,80.0
2026-04-18T19:29:06.621,2,58,160903,135789,80.0
2026-04-18T19:29:06.631,2,59,160903,135789,80.0
2026-04-18T19:29:06.641,2,60,160903,135789,80.0
2026-04-18T19:29:06.651,2,61,160903,135789,80.0
2026-04-18T19:29:06.661,2,62,160974,135893,80.0
2026-04-18T19:29:06.671,2,63,160974,135893,80.0
2026-04-18T19:29:06.681,2,64,160974,135893,80.0
2026-04-18T19:29:06.691,2,65,160974,135893,80.0
2026-04-18T19:29:06.701,2,66,161051,136042,80.0
2026-04-18T19:29:06.712,2,67,161051,136042,80.0
2026-04-18T19:29:06.721,2,68,161051,136042,80.0
2026-04-18T19:29:06.732,2,69,161051,136042,80.0
2026-04-18T19:29:06.741,2,70,161041,135977,80.0
2026-04-18T19:29:06.751,2,71,161041,135977,80.0
2026-04-18T19:29:06.761,2,72,161041,135977,80.0
2026-04-18T19:29:06.771,2,73,161041,135977,80.0
2026-04-18T19:29:06.782,2,74,161038,135955,80.0
2026-04-18T19:29:06.791,2,75,161038,135955,80.0
2026-04-18T19:29:06.801,2,76,161038,135955,80.0
2026-04-18T19:29:06.811,2,77,161038,135955,80.0
2026-04-18T19:29:06.821,2,78,161098,136042,80.0
2026-04-18T19:29:06.831,2,79,161098,136042,80.0
2026-04-18T19:29:06.841,2,80,161098,136042,80.0
2026-04-18T19:29:06.851,2,81,161098,136042,80.0
2026-04-18T19:29:06.861,2,82,161077,135993,80.0
2026-04-18T19:29:06.871,2,83,161077,135993,80.0
2026-04-18T19:29:06.881,2,84,161077,135993,80.0
2026-04-18T19:29:06.891,2,85,161077,135993,80.0
2026-04-18T19:29:06.901,2,86,161150,136066,80.0
2026-04-18T19:29:06.911,2,87,161150,136066,80.0
2026-04-18T19:29:06.922,2,88,161150,136066,80.0
2026-04-18T19:29:06.931,2,89,161150,136066,80.0
2026-04-18T19:29:06.941,2,90,161227,136219,80.0
2026-04-18T19:29:06.951,2,91,161227,136219,80.0
2026-04-18T19:29:06.961,2,92,161227,136219,80.0
2026-04-18T19:29:06.971,2,93,161227,136219,80.0
2026-04-18T19:29:06.981,2,94,161422,136543,80.0
2026-04-18T19:29:06.991,2,95,161422,136543,80.0
2026-04-18T19:29:07.000,2,96,161422,136543,80.0
2026-04-18T19:29:07.011,2,97,161422,136543,80.0
2026-04-18T19:29:07.021,2,98,161517,136739,80.0
2026-04-18T19:29:07.031,2,99,161517,136739,80.0
2026-04-18T19:29:07.041,2,100,161517,136739,80.0
2026-04-18T19:29:07.051,2,101,161517,136739,80.0
2026-04-18T19:29:07.061,2,102,161601,136880,80.0
2026-04-18T19:29:07.070,2,103,161601,136880,80.0
2026-04-18T19:29:07.080,2,104,161601,136880,80.0
2026-04-18T19:29:07.090,2,105,161601,136880,80.0
2026-04-18T19:29:07.101,2,106,161722,137111,80.0
2026-04-18T19:29:07.111,2,107,161722,137111,80.0
2026-04-18T19:29:07.121,2,108,161722,137111,80.0
2026-04-18T19:29:07.130,2,109,161722,137111,80.0
2026-04-18T19:29:07.140,2,110,161723,137127,80.0
2026-04-18T19:29:07.150,2,111,161723,137127,80.0
2026-04-18T19:29:07.161,2,112,161723,137127,80.0
2026-04-18T19:29:07.171,2,113,161723,137127,80.0
2026-04-18T19:29:07.181,2,114,161785,137240,80.0
2026-04-18T19:29:07.191,2,115,161785,137240,80.0
2026-04-18T19:29:07.201,2,116,161785,137240,80.0
2026-04-18T19:29:07.210,2,117,161785,137240,80.0
2026-04-18T19:29:07.220,2,118,161890,137446,80.0
2026-04-18T19:29:07.230,2,119,161890,137446,80.0
2026-04-18T19:29:07.240,2,120,161890,137446,80.0
2026-04-18T19:29:07.250,2,121,161890,137446,80.0
2026-04-18T19:29:07.260,2,122,162025,137663,80.0
2026-04-18T19:29:07.270,2,123,162025,137663,80.0
2026-04-18T19:29:07.280,2,124,162025,137663,80.0
2026-04-18T19:29:07.290,2,125,162025,137663,80.0
2026-04-18T19:29:07.300,2,126,162074,137756,80.0
2026-04-18T19:29:07.311,2,127,162074,137756,80.0
2026-04-18T19:29:07.320,2,128,162074,137756,80.0
2026-04-18T19:29:07.330,2,129,162074,137756,80.0
2026-04-18T19:29:07.340,2,130,162012,137612,80.0
2026-04-18T19:29:07.351,2,131,162012,137612,80.0
2026-04-18T19:29:07.361,2,132,162012,137612,80.0
2026-04-18T19:29:07.371,2,133,162012,137612,80.0
2026-04-18T19:29:07.380,2,134,161867,137269,80.0
2026-04-18T19:29:07.390,2,135,161867,137269,80.0
2026-04-18T19:29:07.400,2,136,161867,137269,80.0
2026-04-18T19:29:07.410,2,137,161867,137269,80.0
2026-04-18T19:29:07.420,2,138,161621,136765,80.0
2026-04-18T19:29:07.430,2,139,161621,136765,80.0
2026-04-18T19:29:07.440,2,140,161621,136765,80.0
2026-04-18T19:29:07.450,2,141,161621,136765,80.0
2026-04-18T19:29:07.460,2,142,161290,136092,80.0
2026-04-18T19:29:07.470,2,143,161290,136092,80.0
2026-04-18T19:29:07.480,2,144,161290,136092,80.0
2026-04-18T19:29:07.490,2,145,161290,136092,80.0
2026-04-18T19:29:07.500,2,146,160940,135399,80.0
2026-04-18T19:29:07.510,2,147,160940,135399,80.0
2026-04-18T19:29:07.520,2,148,160940,135399,80.0
2026-04-18T19:29:07.530,2,149,160940,135399,80.0
2026-04-18T19:29:07.540,2,150,160669,134873,80.0
2026-04-18T19:29:07.550,2,151,160669,134873,80.0
2026-04-18T19:29:07.560,2,152,160669,134873,80.0
2026-04-18T19:29:07.570,2,153,160669,134873,80.0
2026-04-18T19:29:07.580,2,154,160345,134255,80.0
2026-04-18T19:29:07.590,2,155,160345,134255,80.0
2026-04-18T19:29:07.600,2,156,160345,134255,80.0
2026-04-18T19:29:07.610,2,157,160345,134255,80.0
2026-04-18T19:29:07.620,2,158,159905,133465,80.0
2026-04-18T19:29:07.630,2,159,159905,133465,80.0
2026-04-18T19:29:07.640,2,160,159905,133465,80.0
2026-04-18T19:29:07.650,2,161,159905,133465,80.0
2026-04-18T19:29:07.660,2,162,159519,132767,80.0
2026-04-18T19:29:07.670,2,163,159519,132767,80.0
2026-04-18T19:29:07.680,2,164,159519,132767,80.0
2026-04-18T19:29:07.690,2,165,159519,132767,80.0
2026-04-18T19:29:07.700,2,166,159176,132205,80.0
2026-04-18T19:29:07.710,2,167,159176,132205,80.0
2026-04-18T19:29:07.720,2,168,159176,132205,80.0
2026-04-18T19:29:07.730,2,169,159176,132205,80.0
2026-04-18T19:29:07.740,2,170,158970,131819,80.0
2026-04-18T19:29:07.750,2,171,158970,131819,80.0
2026-04-18T19:29:07.760,2,172,158970,131819,80.0
2026-04-18T19:29:07.770,2,173,158970,131819,80.0
2026-04-18T19:29:07.780,2,174,158753,131477,80.0
2026-04-18T19:29:07.790,2,175,158753,131477,80.0
2026-04-18T19:29:07.800,2,176,158753,131477,80.0
2026-04-18T19:29:07.810,2,177,158753,131477,80.0
2026-04-18T19:29:07.820,2,178,158613,131262,80.0
2026-04-18T19:29:07.830,2,179,158613,131262,80.0
2026-04-18T19:29:07.840,2,180,158613,131262,80.0
2026-04-18T19:29:07.850,2,181,158613,131262,80.0
2026-04-18T19:29:07.860,2,182,158494,131121,80.0
2026-04-18T19:29:07.870,2,183,158494,131121,80.0
2026-04-18T19:29:07.880,2,184,158494,131121,80.0
2026-04-18T19:29:07.890,2,185,158494,131121,80.0
2026-04-18T19:29:07.899,2,186,158370,131596,80.0
2026-04-18T19:29:07.910,2,187,158370,131596,80.0
2026-04-18T19:29:07.920,2,188,158370,131596,80.0
2026-04-18T19:29:07.930,2,189,158370,131596,80.0
2026-04-18T19:29:07.940,2,190,158294,131519,80.0
2026-04-18T19:29:07.950,2,191,158294,131519,80.0
2026-04-18T19:29:07.960,2,192,158294,131519,80.0
2026-04-18T19:29:07.970,2,193,158294,131519,80.0
2026-04-18T19:29:07.980,2,194,158202,131394,80.0
2026-04-18T19:29:07.990,2,195,158202,131394,80.0
2026-04-18T19:29:08.000,2,196,158202,131394,80.0
2026-04-18T19:29:08.010,2,197,158202,131394,80.0
2026-04-18T19:29:08.020,2,198,158135,131284,80.0
2026-04-18T19:29:08.029,2,199,158135,131284,80.0
2026-04-18T19:29:08.039,2,200,158135,131284,80.0
2026-04-18T19:29:08.050,2,201,158135,131284,80.0
2026-04-18T19:29:08.060,2,202,157986,131091,80.0
2026-04-18T19:29:08.069,2,203,157986,131091,80.0
2026-04-18T19:29:08.080,2,204,157986,131091,80.0
2026-04-18T19:29:08.090,2,205,157986,131091,80.0
2026-04-18T19:29:08.099,2,206,157901,130911,80.0
2026-04-18T19:29:08.110,2,207,157901,130911,80.0
2026-04-18T19:29:08.120,2,208,157901,130911,80.0
2026-04-18T19:29:08.130,2,209,157901,130911,80.0
2026-04-18T19:29:08.139,2,210,157794,130740,80.0
2026-04-18T19:29:08.149,2,211,157794,130740,80.0
2026-04-18T19:29:08.159,2,212,157794,130740,80.0
2026-04-18T19:29:08.169,2,213,157794,130740,80.0
2026-04-18T19:29:08.179,2,214,157735,130641,80.0
2026-04-18T19:29:08.189,2,215,157735,130641,80.0
2026-04-18T19:29:08.200,2,216,157735,130641,80.0
2026-04-18T19:29:08.209,2,217,157735,130641,80.0
2026-04-18T19:29:08.219,2,218,157713,130593,80.0
2026-04-18T19:29:08.230,2,219,157713,130593,80.0
2026-04-18T19:29:08.239,2,220,157713,130593,80.0
2026-04-18T19:29:08.249,2,221,157713,130593,80.0
2026-04-18T19:29:08.259,2,222,157698,130558,80.0
2026-04-18T19:29:08.269,2,223,157698,130558,80.0
2026-04-18T19:29:08.279,2,224,157698,130558,80.0
2026-04-18T19:29:08.289,2,225,157698,130558,80.0
2026-04-18T19:29:08.299,2,226,157755,130640,80.0
2026-04-18T19:29:08.310,2,227,157755,130640,80.0
2026-04-18T19:29:08.319,2,228,157755,130640,80.0
2026-04-18T19:29:08.329,2,229,157755,130640,80.0
2026-04-18T19:29:08.339,2,230,157809,130735,80.0
2026-04-18T19:29:08.349,2,231,157809,130735,80.0
2026-04-18T19:29:08.360,2,232,157809,130735,80.0
2026-04-18T19:29:08.369,2,233,157809,130735,80.0
2026-04-18T19:29:08.380,2,234,157851,130751,80.0
2026-04-18T19:29:08.389,2,235,157851,130751,80.0
2026-04-18T19:29:08.399,2,236,157851,130751,80.0
2026-04-18T19:29:08.409,2,237,157851,130751,80.0
2026-04-18T19:29:08.419,2,238,157861,130775,80.0
2026-04-18T19:29:08.429,2,239,157861,130775,80.0
2026-04-18T19:29:08.439,2,240,157861,130775,80.0
2026-04-18T19:29:08.449,2,241,157861,130775,80.0
2026-04-18T19:29:08.459,2,242,157920,130864,80.0
2026-04-18T19:29:08.469,2,243,157920,130864,80.0
2026-04-18T19:29:08.479,2,244,157920,130864,80.0
2026-04-18T19:29:08.489,2,245,157920,130864,80.0
2026-04-18T19:29:08.498,2,246,158000,131006,80.0
2026-04-18T19:29:08.509,2,247,158000,131006,80.0
2026-04-18T19:29:08.518,2,248,158000,131006,80.0
2026-04-18T19:29:08.528,2,249,158000,131006,80.0
2026-04-18T19:29:08.539,2,250,158121,131227,80.0
2026-04-18T19:29:08.548,2,251,158121,131227,80.0
2026-04-18T19:29:08.559,2,252,158121,131227,80.0
2026-04-18T19:29:08.568,2,253,158121,131227,80.0
2026-04-18T19:29:08.578,2,254,158269,131537,80.0
2026-04-18T19:29:08.589,2,255,158269,131537,80.0
2026-04-18T19:29:08.599,2,256,158269,131537,80.0
2026-04-18T19:29:08.609,2,257,158269,131537,80.0
2026-04-18T19:29:08.619,2,258,158410,131793,80.0
2026-04-18T19:29:08.629,2,259,158410,131793,80.0
2026-04-18T19:29:08.639,2,260,158410,131793,80.0
2026-04-18T19:29:08.649,2,261,158410,131793,80.0
2026-04-18T19:29:08.658,2,262,158543,132072,80.0
2026-04-18T19:29:08.669,2,263,158543,132072,80.0
2026-04-18T19:29:08.679,2,264,158543,132072,80.0
2026-04-18T19:29:08.689,2,265,158543,132072,80.0
2026-04-18T19:29:08.699,2,266,158694,132320,80.0
2026-04-18T19:29:08.709,2,267,158694,132320,80.0
2026-04-18T19:29:08.719,2,268,158694,132320,80.0
2026-04-18T19:29:08.729,2,269,158694,132320,80.0
2026-04-18T19:29:08.739,2,270,158871,132609,80.0
2026-04-18T19:29:08.749,2,271,158871,132609,80.0
2026-04-18T19:29:08.759,2,272,158871,132609,80.0
2026-04-18T19:29:08.769,2,273,158871,132609,80.0
2026-04-18T19:29:08.779,2,274,159038,132918,80.0
2026-04-18T19:29:08.789,2,275,159038,132918,80.0
2026-04-18T19:29:08.799,2,276,159038,132918,80.0
2026-04-18T19:29:08.809,2,277,159038,132918,80.0
2026-04-18T19:29:08.819,2,278,159149,133108,80.0
2026-04-18T19:29:08.829,2,279,159149,133108,80.0
2026-04-18T19:29:08.839,2,280,159149,133108,80.0
2026-04-18T19:29:08.849,2,281,159149,133108,80.0
2026-04-18T19:29:08.859,2,282,159187,133175,80.0
2026-04-18T19:29:08.869,2,283,159187,133175,80.0
2026-04-18T19:29:08.879,2,284,159187,133175,80.0
2026-04-18T19:29:08.889,2,285,159187,133175,80.0
2026-04-18T19:29:08.899,2,286,159247,133253,80.0
2026-04-18T19:29:08.909,2,287,159247,133253,80.0
2026-04-18T19:29:08.919,2,288,159247,133253,80.0
2026-04-18T19:29:08.928,2,289,159247,133253,80.0
2026-04-18T19:29:08.938,2,290,159326,133398,80.0
2026-04-18T19:29:08.948,2,291,159326,133398,80.0
2026-04-18T19:29:08.959,2,292,159326,133398,80.0
2026-04-18T19:29:08.969,2,293,159326,133398,80.0
2026-04-18T19:29:08.978,2,294,159409,133525,80.0
2026-04-18T19:29:08.989,2,295,159409,133525,80.0
2026-04-18T19:29:08.998,2,296,159409,133525,80.0
2026-04-18T19:29:09.009,2,297,159409,133525,80.0
2026-04-18T19:29:09.018,2,298,159450,133588,80.0
2026-04-18T19:29:09.028,2,299,159450,133588,80.0
2026-04-18T19:29:09.038,2,300,159450,133588,80.0
2026-04-18T19:29:09.048,2,301,159450,133588,80.0
2026-04-18T19:29:09.058,2,302,159582,133786,80.0
2026-04-18T19:29:09.068,2,303,159582,133786,80.0
2026-04-18T19:29:09.078,2,304,159582,133786,80.0
2026-04-18T19:29:09.088,2,305,159582,133786,80.0
2026-04-18T19:29:09.098,2,306,159603,133768,80.0
2026-04-18T19:29:09.108,2,307,159603,133768,80.0
2026-04-18T19:29:09.118,2,308,159603,133768,80.0
2026-04-18T19:29:09.128,2,309,159603,133768,80.0
2026-04-18T19:29:09.138,2,310,159665,133826,80.0
2026-04-18T19:29:09.148,2,311,159665,133826,80.0
2026-04-18T19:29:09.158,2,312,159665,133826,80.0
2026-04-18T19:29:09.168,2,313,159665,133826,80.0
2026-04-18T19:29:09.178,2,314,159773,133971,80.0
2026-04-18T19:29:09.188,2,315,159773,133971,80.0
2026-04-18T19:29:09.198,2,316,159773,133971,80.0
2026-04-18T19:29:09.208,2,317,159773,133971,80.0
2026-04-18T19:29:09.218,2,318,160010,134335,80.0
2026-04-18T19:29:09.228,2,319,160010,134335,80.0
2026-04-18T19:29:09.238,2,320,160010,134335,80.0
2026-04-18T19:29:09.248,2,321,160010,134335,80.0
2026-04-18T19:29:09.258,2,322,160249,134676,80.0
2026-04-18T19:29:09.268,2,323,160249,134676,80.0
2026-04-18T19:29:09.278,2,324,160249,134676,80.0
2026-04-18T19:29:09.288,2,325,160249,134676,80.0
2026-04-18T19:29:09.298,2,326,160484,135086,80.0
2026-04-18T19:29:09.308,2,327,160484,135086,80.0
2026-04-18T19:29:09.317,2,328,160484,135086,80.0
2026-04-18T19:29:09.328,2,329,160484,135086,80.0
2026-04-18T19:29:09.338,2,330,160710,135511,80.0
2026-04-18T19:29:09.348,2,331,160710,135511,80.0
2026-04-18T19:29:09.358,2,332,160710,135511,80.0
2026-04-18T19:29:09.368,2,333,160710,135511,80.0
2026-04-18T19:29:09.378,2,334,160874,135790,80.0
2026-04-18T19:29:09.388,2,335,160874,135790,80.0
2026-04-18T19:29:09.398,2,336,160874,135790,80.0
2026-04-18T19:29:09.408,2,337,160874,135790,80.0
2026-04-18T19:29:09.418,2,338,161058,136171,80.0
2026-04-18T19:29:09.428,2,339,161058,136171,80.0
2026-04-18T19:29:09.438,2,340,161058,136171,80.0
2026-04-18T19:29:09.448,2,341,161058,136171,80.0
2026-04-18T19:29:09.458,2,342,161227,136498,80.0
2026-04-18T19:29:09.468,2,343,161227,136498,80.0
2026-04-18T19:29:09.478,2,344,161227,136498,80.0
2026-04-18T19:29:09.488,2,345,161227,136498,80.0
2026-04-18T19:29:09.498,2,346,161364,136682,80.0
2026-04-18T19:29:09.508,2,347,161364,136682,80.0
2026-04-18T19:29:09.518,2,348,161364,136682,80.0
2026-04-18T19:29:09.528,2,349,161364,136682,80.0
2026-04-18T19:29:09.537,2,350,161402,136775,80.0
2026-04-18T19:29:09.548,2,351,161402,136775,80.0
2026-04-18T19:29:09.558,2,352,161402,136775,80.0
2026-04-18T19:29:09.568,2,353,161402,136775,80.0
2026-04-18T19:29:09.577,2,354,161396,136816,80.0
2026-04-18T19:29:09.588,2,355,161396,136816,80.0
2026-04-18T19:29:09.598,2,356,161396,136816,80.0
2026-04-18T19:29:09.608,2,357,161396,136816,80.0
2026-04-18T19:29:09.617,2,358,161392,136796,80.0
2026-04-18T19:29:09.628,2,359,161392,136796,80.0
2026-04-18T19:29:09.638,2,360,161392,136796,80.0
2026-04-18T19:29:09.648,2,361,161392,136796,80.0
2026-04-18T19:29:09.658,2,362,161436,136908,80.0
2026-04-18T19:29:09.668,2,363,161436,136908,80.0
2026-04-18T19:29:09.678,2,364,161436,136908,80.0
2026-04-18T19:29:09.688,2,365,161436,136908,80.0
2026-04-18T19:29:09.698,2,366,161508,137039,80.0
2026-04-18T19:29:09.708,2,367,161508,137039,80.0
2026-04-18T19:29:09.718,2,368,161508,137039,80.0
2026-04-18T19:29:09.728,2,369,161508,137039,80.0
2026-04-18T19:29:09.738,2,370,161504,137058,80.0
2026-04-18T19:29:09.748,2,371,161504,137058,80.0
2026-04-18T19:29:09.758,2,372,161504,137058,80.0
2026-04-18T19:29:09.768,2,373,161504,137058,80.0
2026-04-18T19:29:09.778,2,374,161565,137185,80.0
2026-04-18T19:29:09.788,2,375,161565,137185,80.0
2026-04-18T19:29:09.798,2,376,161565,137185,80.0
2026-04-18T19:29:09.808,2,377,161565,137185,80.0
2026-04-18T19:29:09.818,2,378,161655,137363,80.0
2026-04-18T19:29:09.828,2,379,161655,137363,80.0
2026-04-18T19:29:09.838,2,380,161655,137363,80.0
2026-04-18T19:29:09.847,2,381,161655,137363,80.0
2026-04-18T19:29:09.858,2,382,161696,137426,80.0
2026-04-18T19:29:09.868,2,383,161696,137426,80.0
2026-04-18T19:29:09.878,2,384,161696,137426,80.0
2026-04-18T19:29:09.888,2,385,161696,137426,80.0
2026-04-18T19:29:09.898,2,386,161717,137472,80.0
2026-04-18T19:29:09.907,2,387,161717,137472,80.0
2026-04-18T19:29:09.918,2,388,161717,137472,80.0
2026-04-18T19:29:09.927,2,389,161717,137472,80.0
2026-04-18T19:29:09.938,2,390,161779,137556,80.0
2026-04-18T19:29:09.948,2,391,161779,137556,80.0
2026-04-18T19:29:09.957,2,392,161779,137556,80.0
2026-04-18T19:29:09.967,2,393,161779,137556,80.0
2026-04-18T19:29:09.977,2,394,161925,137790,80.0
2026-04-18T19:29:09.987,2,395,161925,137790,80.0
2026-04-18T19:29:09.997,2,396,161925,137790,80.0
2026-04-18T19:29:10.007,2,397,161925,137790,80.0
2026-04-18T19:29:10.017,2,398,162063,138039,80.0
2026-04-18T19:29:10.027,2,399,162063,138039,80.0
2026-04-18T19:29:10.037,2,400,162063,138039,80.0
2026-04-18T19:29:10.047,2,401,162063,138039,80.0
2026-04-18T19:29:10.057,2,402,162243,138418,80.0
2026-04-18T19:29:10.067,2,403,162243,138418,80.0
2026-04-18T19:29:10.077,2,404,162243,138418,80.0
2026-04-18T19:29:10.087,2,405,162243,138418,80.0
2026-04-18T19:29:10.097,2,406,162349,138622,80.0
2026-04-18T19:29:10.107,2,407,162349,138622,80.0
2026-04-18T19:29:10.118,2,408,162349,138622,80.0
2026-04-18T19:29:10.127,2,409,162349,138622,80.0
2026-04-18T19:29:10.137,2,410,162289,138557,80.0
2026-04-18T19:29:10.147,2,411,162289,138557,80.0
2026-04-18T19:29:10.157,2,412,162289,138557,80.0
2026-04-18T19:29:10.168,2,413,162289,138557,80.0
2026-04-18T19:29:10.177,2,414,162311,138624,80.0
2026-04-18T19:29:10.187,2,415,162311,138624,80.0
2026-04-18T19:29:10.197,2,416,162311,138624,80.0
2026-04-18T19:29:10.207,2,417,162311,138624,80.0
2026-04-18T19:29:10.217,2,418,162397,138776,80.0
2026-04-18T19:29:10.227,2,419,162397,138776,80.0
2026-04-18T19:29:10.237,2,420,162397,138776,80.0
2026-04-18T19:29:10.247,2,421,162397,138776,80.0
2026-04-18T19:29:10.258,2,422,162416,138817,80.0
2026-04-18T19:29:10.267,2,423,162416,138817,80.0
2026-04-18T19:29:10.277,2,424,162416,138817,80.0
2026-04-18T19:29:10.287,2,425,162416,138817,80.0
2026-04-18T19:29:10.297,2,426,162351,138702,80.0
2026-04-18T19:29:10.307,2,427,162351,138702,80.0
2026-04-18T19:29:10.317,2,428,162351,138702,80.0
2026-04-18T19:29:10.327,2,429,162351,138702,80.0
2026-04-18T19:29:10.337,2,430,162286,138601,80.0
2026-04-18T19:29:10.347,2,431,162286,138601,80.0
2026-04-18T19:29:10.357,2,432,162286,138601,80.0
2026-04-18T19:29:10.367,2,433,162286,138601,80.0
2026-04-18T19:29:10.377,2,434,162277,138568,80.0
2026-04-18T19:29:10.387,2,435,162277,138568,80.0
2026-04-18T19:29:10.397,2,436,162277,138568,80.0
2026-04-18T19:29:10.407,2,437,162277,138568,80.0
2026-04-18T19:29:10.417,2,438,162244,138504,80.0
2026-04-18T19:29:10.427,2,439,162244,138504,80.0
2026-04-18T19:29:10.437,2,440,162244,138504,80.0
2026-04-18T19:29:10.447,2,441,162244,138504,80.0
2026-04-18T19:29:10.456,2,442,162195,138414,80.0
2026-04-18T19:29:10.467,2,443,162195,138414,80.0
2026-04-18T19:29:10.477,2,444,162195,138414,80.0
2026-04-18T19:29:10.487,2,445,162195,138414,80.0
2026-04-18T19:29:10.497,2,446,162089,138197,80.0
2026-04-18T19:29:10.507,2,447,162089,138197,80.0
2026-04-18T19:29:10.517,2,448,162089,138197,80.0
2026-04-18T19:29:10.527,2,449,162089,138197,80.0
2026-04-18T19:29:10.537,2,450,162068,138179,80.0
2026-04-18T19:29:10.546,2,451,162068,138179,80.0
2026-04-18T19:29:10.556,2,452,162068,138179,80.0
2026-04-18T19:29:10.566,2,453,162068,138179,80.0
2026-04-18T19:29:10.576,2,454,162139,138325,80.0
2026-04-18T19:29:10.587,2,455,162139,138325,80.0
2026-04-18T19:29:10.597,2,456,162139,138325,80.0
2026-04-18T19:29:10.607,2,457,162139,138325,80.0
2026-04-18T19:29:10.617,2,458,162084,138176,80.0
2026-04-18T19:29:10.627,2,459,162084,138176,80.0
2026-04-18T19:29:10.637,2,460,162084,138176,80.0
2026-04-18T19:29:10.647,2,461,162084,138176,80.0
2026-04-18T19:29:10.656,2,462,162091,138155,80.0
2026-04-18T19:29:10.667,2,463,162091,138155,80.0
2026-04-18T19:29:10.676,2,464,162091,138155,80.0
2026-04-18T19:29:10.686,2,465,162091,138155,80.0
2026-04-18T19:29:10.696,2,466,162144,138237,80.0
2026-04-18T19:29:10.706,2,467,162144,138237,80.0
2026-04-18T19:29:10.716,2,468,162144,138237,80.0
2026-04-18T19:29:10.726,2,469,162144,138237,80.0
2026-04-18T19:29:10.736,2,470,162266,138452,80.0
2026-04-18T19:29:10.746,2,471,162266,138452,80.0
2026-04-18T19:29:10.756,2,472,162266,138452,80.0
2026-04-18T19:29:10.766,2,473,162266,138452,80.0
2026-04-18T19:29:10.776,2,474,162324,138565,80.0
2026-04-18T19:29:10.787,2,475,162324,138565,80.0
2026-04-18T19:29:10.796,2,476,162324,138565,80.0
2026-04-18T19:29:10.806,2,477,162324,138565,80.0
2026-04-18T19:29:10.817,2,478,162410,138745,80.0
2026-04-18T19:29:10.826,2,479,162410,138745,80.0
2026-04-18T19:29:10.837,2,480,162410,138745,80.0
2026-04-18T19:29:10.846,2,481,162410,138745,80.0
2026-04-18T19:29:10.856,2,482,162545,139032,80.0
2026-04-18T19:29:10.866,2,483,162545,139032,80.0
2026-04-18T19:29:10.876,2,484,162545,139032,80.0
2026-04-18T19:29:10.886,2,485,162545,139032,80.0
2026-04-18T19:29:10.896,2,486,162498,138962,80.0
2026-04-18T19:29:10.906,2,487,162498,138962,80.0
2026-04-18T19:29:10.916,2,488,162498,138962,80.0
2026-04-18T19:29:10.926,2,489,162498,138962,80.0
2026-04-18T19:29:10.936,2,490,162468,138877,80.0
2026-04-18T19:29:10.946,2,491,162468,138877,80.0
2026-04-18T19:29:10.956,2,492,162468,138877,80.0
2026-04-18T19:29:10.966,2,493,162468,138877,80.0
2026-04-18T19:29:10.976,2,494,162540,138978,80.0
2026-04-18T19:29:10.986,2,495,162540,138978,80.0
2026-04-18T19:29:10.996,2,496,162540,138978,80.0
2026-04-18T19:29:11.006,2,497,162540,138978,80.0
2026-04-18T19:29:11.016,2,498,162509,138879,80.0
2026-04-18T19:29:11.026,2,499,162509,138879,80.0
2026-04-18T19:29:11.036,2,500,162509,138879,80.0
2026-04-18T19:29:11.046,2,501,162509,138879,80.0
2026-04-18T19:29:11.056,2,502,162323,138505,80.0
2026-04-18T19:29:11.066,2,503,162323,138505,80.0
2026-04-18T19:29:11.076,2,504,162323,138505,80.0
2026-04-18T19:29:11.086,2,505,162323,138505,80.0
2026-04-18T19:29:11.096,2,506,162067,137958,80.0
2026-04-18T19:29:11.106,2,507,162067,137958,80.0
2026-04-18T19:29:11.116,2,508,162067,137958,80.0
2026-04-18T19:29:11.126,2,509,162067,137958,80.0
2026-04-18T19:29:11.136,2,510,161724,137278,80.0
2026-04-18T19:29:11.146,2,511,161724,137278,80.0
2026-04-18T19:29:11.156,2,512,161724,137278,80.0
2026-04-18T19:29:11.166,2,513,161724,137278,80.0
2026-04-18T19:29:11.176,2,514,161410,136635,80.0
2026-04-18T19:29:11.186,2,515,161410,136635,80.0
2026-04-18T19:29:11.196,2,516,161410,136635,80.0
2026-04-18T19:29:11.206,2,517,161410,136635,80.0
2026-04-18T19:29:11.216,2,518,161095,136029,80.0
2026-04-18T19:29:11.226,2,519,161095,136029,80.0
2026-04-18T19:29:11.236,2,520,161095,136029,80.0
2026-04-18T19:29:11.245,2,521,161095,136029,80.0
2026-04-18T19:29:11.256,2,522,160812,135503,80.0
2026-04-18T19:29:11.266,2,523,160812,135503,80.0
2026-04-18T19:29:11.276,2,524,160812,135503,80.0
2026-04-18T19:29:11.286,2,525,160812,135503,80.0
2026-04-18T19:29:11.296,2,526,160538,134994,80.0
2026-04-18T19:29:11.306,2,527,160538,134994,80.0
2026-04-18T19:29:11.316,2,528,160538,134994,80.0
2026-04-18T19:29:11.326,2,529,160538,134994,80.0
2026-04-18T19:29:11.336,2,530,160317,134564,80.0
2026-04-18T19:29:11.345,2,531,160317,134564,80.0
2026-04-18T19:29:11.355,2,532,160317,134564,80.0
2026-04-18T19:29:11.365,2,533,160317,134564,80.0
2026-04-18T19:29:11.375,2,534,160013,134003,80.0
2026-04-18T19:29:11.385,2,535,160013,134003,80.0
2026-04-18T19:29:11.396,2,536,160013,134003,80.0
2026-04-18T19:29:11.405,2,537,160013,134003,80.0
2026-04-18T19:29:11.416,2,538,159791,133609,80.0
2026-04-18T19:29:11.426,2,539,159791,133609,80.0
2026-04-18T19:29:11.436,2,540,159791,133609,80.0
2026-04-18T19:29:11.446,2,541,159791,133609,80.0
2026-04-18T19:29:11.456,2,542,159646,133345,80.0
2026-04-18T19:29:11.466,2,543,159646,133345,80.0
2026-04-18T19:29:11.476,2,544,159646,133345,80.0
2026-04-18T19:29:11.486,2,545,159646,133345,80.0
2026-04-18T19:29:11.496,2,546,159596,133221,80.0
2026-04-18T19:29:11.505,2,547,159596,133221,80.0
2026-04-18T19:29:11.515,2,548,159596,133221,80.0
2026-04-18T19:29:11.525,2,549,159596,133221,80.0
2026-04-18T19:29:11.536,2,550,159597,133188,80.0
2026-04-18T19:29:11.546,2,551,159597,133188,80.0
2026-04-18T19:29:11.555,2,552,159597,133188,80.0
2026-04-18T19:29:11.566,2,553,159597,133188,80.0
2026-04-18T19:29:11.576,2,554,159580,133178,80.0
2026-04-18T19:29:11.585,2,555,159580,133178,80.0
2026-04-18T19:29:11.595,2,556,159580,133178,80.0
2026-04-18T19:29:11.605,2,557,159580,133178,80.0
2026-04-18T19:29:11.615,2,558,159611,133249,80.0
2026-04-18T19:29:11.625,2,559,159611,133249,80.0
2026-04-18T19:29:11.636,2,560,159611,133249,80.0
2026-04-18T19:29:11.646,2,561,159611,133249,80.0
2026-04-18T19:29:11.656,2,562,159553,133179,80.0
2026-04-18T19:29:11.665,2,563,159553,133179,80.0
2026-04-18T19:29:11.675,2,564,159553,133179,80.0
2026-04-18T19:29:11.686,2,565,159553,133179,80.0
2026-04-18T19:29:11.695,2,566,159548,133166,80.0
2026-04-18T19:29:11.706,2,567,159548,133166,80.0
2026-04-18T19:29:11.715,2,568,159548,133166,80.0
2026-04-18T19:29:11.726,2,569,159548,133166,80.0
2026-04-18T19:29:11.736,2,570,159568,133246,80.0
2026-04-18T19:29:11.746,2,571,159568,133246,80.0
2026-04-18T19:29:11.756,2,572,159568,133246,80.0
2026-04-18T19:29:11.765,2,573,159568,133246,80.0
2026-04-18T19:29:11.775,2,574,159638,133334,80.0
2026-04-18T19:29:11.785,2,575,159638,133334,80.0
2026-04-18T19:29:11.796,2,576,159638,133334,80.0
2026-04-18T19:29:11.806,2,577,159638,133334,80.0
2026-04-18T19:29:11.815,2,578,159609,133315,80.0
2026-04-18T19:29:11.825,2,579,159609,133315,80.0
2026-04-18T19:29:11.836,2,580,159609,133315,80.0
2026-04-18T19:29:11.845,2,581,159609,133315,80.0
2026-04-18T19:29:11.855,2,582,159595,133305,80.0
2026-04-18T19:29:11.865,2,583,159595,133305,80.0
2026-04-18T19:29:11.875,2,584,159595,133305,80.0
2026-04-18T19:29:11.885,2,585,159595,133305,80.0
2026-04-18T19:29:11.895,2,586,159598,133313,80.0
2026-04-18T19:29:11.905,2,587,159598,133313,80.0
2026-04-18T19:29:11.915,2,588,159598,133313,80.0
2026-04-18T19:29:11.925,2,589,159598,133313,80.0
2026-04-18T19:29:11.935,2,590,159677,133462,80.0
2026-04-18T19:29:11.945,2,591,159677,133462,80.0
2026-04-18T19:29:11.955,2,592,159677,133462,80.0
2026-04-18T19:29:11.965,2,593,159677,133462,80.0
2026-04-18T19:29:11.975,2,594,159791,133660,80.0
2026-04-18T19:29:11.985,2,595,159791,133660,80.0
2026-04-18T19:29:11.995,2,596,159791,133660,80.0
2026-04-18T19:29:12.005,2,597,159791,133660,80.0
2026-04-18T19:29:12.015,2,598,159826,133707,80.0
2026-04-18T19:29:12.025,2,599,159826,133707,80.0
2026-04-18T19:29:12.035,2,600,159826,133707,80.0
2026-04-18T19:29:12.045,2,601,159826,133707,80.0
2026-04-18T19:29:12.055,2,602,159930,133852,80.0
2026-04-18T19:29:12.065,2,603,159930,133852,80.0
2026-04-18T19:29:12.075,2,604,159930,133852,80.0
2026-04-18T19:29:12.085,2,605,159930,133852,80.0
2026-04-18T19:29:12.095,2,606,160078,134116,80.0
2026-04-18T19:29:12.105,2,607,160078,134116,80.0
2026-04-18T19:29:12.115,2,608,160078,134116,80.0
2026-04-18T19:29:12.125,2,609,160078,134116,80.0
2026-04-18T19:29:12.135,2,610,160229,134340,80.0
2026-04-18T19:29:12.144,2,611,160229,134340,80.0
2026-04-18T19:29:12.155,2,612,160229,134340,80.0
2026-04-18T19:29:12.165,2,613,160229,134340,80.0
2026-04-18T19:29:12.175,2,614,160342,134540,80.0
2026-04-18T19:29:12.185,2,615,160342,134540,80.0
2026-04-18T19:29:12.195,2,616,160342,134540,80.0
2026-04-18T19:29:12.205,2,617,160342,134540,80.0
2026-04-18T19:29:12.215,2,618,160521,134866,80.0
2026-04-18T19:29:12.225,2,619,160521,134866,80.0
2026-04-18T19:29:12.234,2,620,160521,134866,80.0
2026-04-18T19:29:12.244,2,621,160521,134866,80.0
2026-04-18T19:29:12.254,2,622,160705,135185,80.0
2026-04-18T19:29:12.264,2,623,160705,135185,80.0
2026-04-18T19:29:12.274,2,624,160705,135185,80.0
2026-04-18T19:29:12.285,2,625,160705,135185,80.0
2026-04-18T19:29:12.295,2,626,160956,135622,80.0
2026-04-18T19:29:12.304,2,627,160956,135622,80.0
2026-04-18T19:29:12.314,2,628,160956,135622,80.0
2026-04-18T19:29:12.324,2,629,160956,135622,80.0
2026-04-18T19:29:12.334,2,630,161117,135970,80.0
2026-04-18T19:29:12.345,2,631,161117,135970,80.0
2026-04-18T19:29:12.354,2,632,161117,135970,80.0
2026-04-18T19:29:12.365,2,633,161117,135970,80.0
2026-04-18T19:29:12.374,2,634,161324,136370,80.0
2026-04-18T19:29:12.384,2,635,161324,136370,80.0
2026-04-18T19:29:12.394,2,636,161324,136370,80.0
2026-04-18T19:29:12.404,2,637,161324,136370,80.0
2026-04-18T19:29:12.414,2,638,161395,136538,80.0
2026-04-18T19:29:12.424,2,639,161395,136538,80.0
2026-04-18T19:29:12.434,2,640,161395,136538,80.0
2026-04-18T19:29:12.444,2,641,161395,136538,80.0
2026-04-18T19:29:12.454,2,642,161523,136793,80.0
2026-04-18T19:29:12.464,2,643,161523,136793,80.0
2026-04-18T19:29:12.474,2,644,161523,136793,80.0
2026-04-18T19:29:12.484,2,645,161523,136793,80.0
2026-04-18T19:29:12.494,2,646,161701,137117,80.0
2026-04-18T19:29:12.504,2,647,161701,137117,80.0
2026-04-18T19:29:12.514,2,648,161701,137117,80.0
2026-04-18T19:29:12.524,2,649,161701,137117,80.0
2026-04-18T19:29:12.534,2,650,161832,137367,80.0
2026-04-18T19:29:12.545,2,651,161832,137367,80.0
2026-04-18T19:29:12.554,2,652,161832,137367,80.0
2026-04-18T19:29:12.564,2,653,161832,137367,80.0
2026-04-18T19:29:12.574,2,654,161863,137486,80.0
2026-04-18T19:29:12.584,2,655,161863,137486,80.0
2026-04-18T19:29:12.594,2,656,161863,137486,80.0
2026-04-18T19:29:12.605,2,657,161863,137486,80.0
2026-04-18T19:29:12.614,2,658,161833,137432,80.0
2026-04-18T19:29:12.624,2,659,161833,137432,80.0
2026-04-18T19:29:12.634,2,660,161833,137432,80.0
2026-04-18T19:29:12.644,2,661,161833,137432,80.0
2026-04-18T19:29:12.654,2,662,161824,137407,80.0
2026-04-18T19:29:12.664,2,663,161824,137407,80.0
2026-04-18T19:29:12.674,2,664,161824,137407,80.0
2026-04-18T19:29:12.684,2,665,161824,137407,80.0
2026-04-18T19:29:12.695,2,666,161844,137441,80.0
2026-04-18T19:29:12.704,2,667,161844,137441,80.0
2026-04-18T19:29:12.714,2,668,161844,137441,80.0
2026-04-18T19:29:12.724,2,669,161844,137441,80.0
2026-04-18T19:29:12.734,2,670,161863,137512,80.0
2026-04-18T19:29:12.744,2,671,161863,137512,80.0
2026-04-18T19:29:12.754,2,672,161863,137512,80.0
2026-04-18T19:29:12.764,2,673,161863,137512,80.0
2026-04-18T19:29:12.774,2,674,161826,137456,80.0
2026-04-18T19:29:12.784,2,675,161826,137456,80.0
2026-04-18T19:29:12.794,2,676,161826,137456,80.0
2026-04-18T19:29:12.805,2,677,161826,137456,80.0
2026-04-18T19:29:12.814,2,678,161856,137509,80.0
2026-04-18T19:29:12.824,2,679,161856,137509,80.0
2026-04-18T19:29:12.834,2,680,161856,137509,80.0
2026-04-18T19:29:12.844,2,681,161856,137509,80.0
2026-04-18T19:29:12.854,2,682,161864,137526,80.0
2026-04-18T19:29:12.864,2,683,161864,137526,80.0
2026-04-18T19:29:12.874,2,684,161864,137526,80.0
2026-04-18T19:29:12.884,2,685,161864,137526,80.0
2026-04-18T19:29:12.894,2,686,161835,137455,80.0
2026-04-18T19:29:12.903,2,687,161835,137455,80.0
2026-04-18T19:29:12.914,2,688,161835,137455,80.0
2026-04-18T19:29:12.924,2,689,161835,137455,80.0
2026-04-18T19:29:12.933,2,690,161795,137365,80.0
2026-04-18T19:29:12.944,2,691,161795,137365,80.0
2026-04-18T19:29:12.954,2,692,161795,137365,80.0
2026-04-18T19:29:12.964,2,693,161795,137365,80.0
2026-04-18T19:29:12.974,2,694,161818,137400,80.0
2026-04-18T19:29:12.984,2,695,161818,137400,80.0
2026-04-18T19:29:12.994,2,696,161818,137400,80.0
2026-04-18T19:29:13.004,2,697,161818,137400,80.0
2026-04-18T19:29:13.014,2,698,161927,137575,80.0
2026-04-18T19:29:13.024,2,699,161927,137575,80.0
2026-04-18T19:29:13.034,2,700,161927,137575,80.0
2026-04-18T19:29:13.043,2,701,161927,137575,80.0
2026-04-18T19:29:13.054,2,702,162026,137783,80.0
2026-04-18T19:29:13.064,2,703,162026,137783,80.0
2026-04-18T19:29:13.074,2,704,162026,137783,80.0
2026-04-18T19:29:13.084,2,705,162026,137783,80.0
2026-04-18T19:29:13.094,2,706,162105,137963,80.0
2026-04-18T19:29:13.104,2,707,162105,137963,80.0
2026-04-18T19:29:13.114,2,708,162105,137963,80.0
2026-04-18T19:29:13.124,2,709,162105,137963,80.0
2026-04-18T19:29:13.134,2,710,162178,138112,80.0
2026-04-18T19:29:13.144,2,711,162178,138112,80.0
2026-04-18T19:29:13.154,2,712,162178,138112,80.0
2026-04-18T19:29:13.163,2,713,162178,138112,80.0
2026-04-18T19:29:13.174,2,714,162147,138111,80.0
2026-04-18T19:29:13.184,2,715,162147,138111,80.0
2026-04-18T19:29:13.194,2,716,162147,138111,80.0
2026-04-18T19:29:13.203,2,717,162147,138111,80.0
2026-04-18T19:29:13.213,2,718,162183,138191,80.0
2026-04-18T19:29:13.224,2,719,162183,138191,80.0
2026-04-18T19:29:13.233,2,720,162183,138191,80.0
2026-04-18T19:29:13.243,2,721,162183,138191,80.0
2026-04-18T19:29:13.253,2,722,162200,138217,80.0
2026-04-18T19:29:13.263,2,723,162200,138217,80.0
2026-04-18T19:29:13.273,2,724,162200,138217,80.0
2026-04-18T19:29:13.283,2,725,162200,138217,80.0
2026-04-18T19:29:13.293,2,726,162144,138089,80.0
2026-04-18T19:29:13.303,2,727,162144,138089,80.0
2026-04-18T19:29:13.313,2,728,162144,138089,80.0
2026-04-18T19:29:13.323,2,729,162144,138089,80.0
2026-04-18T19:29:13.333,2,730,162065,137927,80.0
2026-04-18T19:29:13.344,2,731,162065,137927,80.0
2026-04-18T19:29:13.354,2,732,162065,137927,80.0
2026-04-18T19:29:13.363,2,733,162065,137927,80.0
2026-04-18T19:29:13.374,2,734,161943,137717,80.0
2026-04-18T19:29:13.384,2,735,161943,137717,80.0
2026-04-18T19:29:13.393,2,736,161943,137717,80.0
2026-04-18T19:29:13.403,2,737,161943,137717,80.0
2026-04-18T19:29:13.413,2,738,161865,137572,80.0
2026-04-18T19:29:13.423,2,739,161865,137572,80.0
2026-04-18T19:29:13.433,2,740,161865,137572,80.0
2026-04-18T19:29:13.443,2,741,161865,137572,80.0
2026-04-18T19:29:13.453,2,742,161823,137469,80.0
2026-04-18T19:29:13.463,2,743,161823,137469,80.0
2026-04-18T19:29:13.473,2,744,161823,137469,80.0
2026-04-18T19:29:13.483,2,745,161823,137469,80.0
2026-04-18T19:29:13.493,2,746,161760,137345,80.0
2026-04-18T19:29:13.503,2,747,161760,137345,80.0
2026-04-18T19:29:13.513,2,748,161760,137345,80.0
2026-04-18T19:29:13.523,2,749,161760,137345,80.0
2026-04-18T19:29:13.533,2,750,161626,137084,80.0
2026-04-18T19:29:13.543,2,751,161626,137084,80.0
2026-04-18T19:29:13.553,2,752,161626,137084,80.0
2026-04-18T19:29:13.563,2,753,161626,137084,80.0
2026-04-18T19:29:13.573,2,754,161587,136999,80.0
2026-04-18T19:29:13.583,2,755,161587,136999,80.0
2026-04-18T19:29:13.593,2,756,161587,136999,80.0
2026-04-18T19:29:13.603,2,757,161587,136999,80.0
2026-04-18T19:29:13.613,2,758,161548,136894,80.0
2026-04-18T19:29:13.623,2,759,161548,136894,80.0
2026-04-18T19:29:13.633,2,760,161548,136894,80.0
2026-04-18T19:29:13.643,2,761,161548,136894,80.0
2026-04-18T19:29:13.653,2,762,161497,136751,80.0
2026-04-18T19:29:13.664,2,763,161497,136751,80.0
2026-04-18T19:29:13.673,2,764,161497,136751,80.0
2026-04-18T19:29:13.683,2,765,161497,136751,80.0
2026-04-18T19:29:13.693,2,766,161471,136671,80.0
2026-04-18T19:29:13.703,2,767,161471,136671,80.0
2026-04-18T19:29:13.713,2,768,161471,136671,80.0
2026-04-18T19:29:13.723,2,769,161471,136671,80.0
2026-04-18T19:29:13.733,2,770,161461,136661,80.0
2026-04-18T19:29:13.743,2,771,161461,136661,80.0
2026-04-18T19:29:13.753,2,772,161461,136661,80.0
2026-04-18T19:29:13.763,2,773,161461,136661,80.0
2026-04-18T19:29:13.773,2,774,161556,136788,80.0
2026-04-18T19:29:13.783,2,775,161556,136788,80.0
2026-04-18T19:29:13.793,2,776,161556,136788,80.0
2026-04-18T19:29:13.803,2,777,161556,136788,80.0
2026-04-18T19:29:13.813,2,778,161620,136919,80.0
2026-04-18T19:29:13.823,2,779,161620,136919,80.0
2026-04-18T19:29:13.833,2,780,161620,136919,80.0
2026-04-18T19:29:13.843,2,781,161620,136919,80.0
2026-04-18T19:29:13.853,2,782,161654,136979,80.0
2026-04-18T19:29:13.863,2,783,161654,136979,80.0
2026-04-18T19:29:13.873,2,784,161654,136979,80.0
2026-04-18T19:29:13.883,2,785,161654,136979,80.0
2026-04-18T19:29:13.893,2,786,161621,136943,80.0
2026-04-18T19:29:13.903,2,787,161621,136943,80.0
2026-04-18T19:29:13.913,2,788,161621,136943,80.0
2026-04-18T19:29:13.923,2,789,161621,136943,80.0
2026-04-18T19:29:13.933,2,790,161474,136640,80.0
2026-04-18T19:29:13.943,2,791,161474,136640,80.0
2026-04-18T19:29:13.953,2,792,161474,136640,80.0
2026-04-18T19:29:13.963,2,793,161474,136640,80.0
2026-04-18T19:29:13.973,2,794,161356,136422,80.0
2026-04-18T19:29:13.983,2,795,161356,136422,80.0
2026-04-18T19:29:13.993,2,796,161356,136422,80.0
2026-04-18T19:29:14.003,2,797,161356,136422,80.0
2026-04-18T19:29:14.013,2,798,161258,136239,80.0
2026-04-18T19:29:14.022,2,799,161258,136239,80.0
2026-04-18T19:29:14.033,2,800,161258,136239,80.0
2026-04-18T19:29:14.043,2,801,161258,136239,80.0
2026-04-18T19:29:14.053,2,802,161155,136030,80.0
2026-04-18T19:29:14.063,2,803,161155,136030,80.0
2026-04-18T19:29:14.072,2,804,161155,136030,80.0
2026-04-18T19:29:14.082,2,805,161155,136030,80.0
2026-04-18T19:29:14.093,2,806,160952,135661,80.0
2026-04-18T19:29:14.103,2,807,160952,135661,80.0
2026-04-18T19:29:14.113,2,808,160952,135661,80.0
2026-04-18T19:29:14.122,2,809,160952,135661,80.0
2026-04-18T19:29:14.133,2,810,160723,135243,80.0
2026-04-18T19:29:14.143,2,811,160723,135243,80.0
2026-04-18T19:29:14.153,2,812,160723,135243,80.0
2026-04-18T19:29:14.163,2,813,160723,135243,80.0
2026-04-18T19:29:14.173,2,814,160492,134816,80.0
2026-04-18T19:29:14.182,2,815,160492,134816,80.0
2026-04-18T19:29:14.192,2,816,160492,134816,80.0
2026-04-18T19:29:14.202,2,817,160492,134816,80.0
2026-04-18T19:29:14.213,2,818,160273,134429,80.0
2026-04-18T19:29:14.222,2,819,160273,134429,80.0
2026-04-18T19:29:14.232,2,820,160273,134429,80.0
2026-04-18T19:29:14.243,2,821,160273,134429,80.0
2026-04-18T19:29:14.253,2,822,160113,134132,80.0
2026-04-18T19:29:14.262,2,823,160113,134132,80.0
2026-04-18T19:29:14.272,2,824,160113,134132,80.0
2026-04-18T19:29:14.282,2,825,160113,134132,80.0
2026-04-18T19:29:14.292,2,826,159933,133843,80.0
2026-04-18T19:29:14.303,2,827,159933,133843,80.0
2026-04-18T19:29:14.312,2,828,159933,133843,80.0
2026-04-18T19:29:14.322,2,829,159933,133843,80.0
2026-04-18T19:29:14.332,2,830,159824,133634,80.0
2026-04-18T19:29:14.342,2,831,159824,133634,80.0
2026-04-18T19:29:14.352,2,832,159824,133634,80.0
2026-04-18T19:29:14.362,2,833,159824,133634,80.0
2026-04-18T19:29:14.372,2,834,159748,133484,80.0
2026-04-18T19:29:14.382,2,835,159748,133484,80.0
2026-04-18T19:29:14.392,2,836,159748,133484,80.0
2026-04-18T19:29:14.403,2,837,159748,133484,80.0
2026-04-18T19:29:14.412,2,838,159639,133279,80.0
2026-04-18T19:29:14.422,2,839,159639,133279,80.0
2026-04-18T19:29:14.433,2,840,159639,133279,80.0
2026-04-18T19:29:14.442,2,841,159639,133279,80.0
2026-04-18T19:29:14.452,2,842,159574,133132,80.0
2026-04-18T19:29:14.462,2,843,159574,133132,80.0
2026-04-18T19:29:14.472,2,844,159574,133132,80.0
2026-04-18T19:29:14.482,2,845,159574,133132,80.0
2026-04-18T19:29:14.492,2,846,159554,133094,80.0
2026-04-18T19:29:14.502,2,847,159554,133094,80.0
2026-04-18T19:29:14.512,2,848,159554,133094,80.0
2026-04-18T19:29:14.522,2,849,159554,133094,80.0
2026-04-18T19:29:14.532,2,850,159688,133307,80.0
2026-04-18T19:29:14.542,2,851,159688,133307,80.0
2026-04-18T19:29:14.552,2,852,159688,133307,80.0
2026-04-18T19:29:14.562,2,853,159688,133307,80.0
2026-04-18T19:29:14.572,2,854,159842,133596,80.0
2026-04-18T19:29:14.582,2,855,159842,133596,80.0
2026-04-18T19:29:14.592,2,856,159842,133596,80.0
2026-04-18T19:29:14.602,2,857,159842,133596,80.0
2026-04-18T19:29:14.612,2,858,160059,133997,80.0
2026-04-18T19:29:14.622,2,859,160059,133997,80.0
2026-04-18T19:29:14.632,2,860,160059,133997,80.0
2026-04-18T19:29:14.642,2,861,160059,133997,80.0
2026-04-18T19:29:14.652,2,862,160290,134430,80.0
2026-04-18T19:29:14.662,2,863,160290,134430,80.0
2026-04-18T19:29:14.672,2,864,160290,134430,80.0
2026-04-18T19:29:14.682,2,865,160290,134430,80.0
2026-04-18T19:29:14.692,2,866,160443,134742,80.0
2026-04-18T19:29:14.702,2,867,160443,134742,80.0
2026-04-18T19:29:14.712,2,868,160443,134742,80.0
2026-04-18T19:29:14.722,2,869,160443,134742,80.0
2026-04-18T19:29:14.732,2,870,160605,135074,80.0
2026-04-18T19:29:14.742,2,871,160605,135074,80.0
2026-04-18T19:29:14.751,2,872,160605,135074,80.0
2026-04-18T19:29:14.762,2,873,160605,135074,80.0
2026-04-18T19:29:14.772,2,874,160813,135465,80.0
2026-04-18T19:29:14.782,2,875,160813,135465,80.0
2026-04-18T19:29:14.792,2,876,160813,135465,80.0
2026-04-18T19:29:14.802,2,877,160813,135465,80.0
2026-04-18T19:29:14.812,2,878,161035,135843,80.0
2026-04-18T19:29:14.822,2,879,161035,135843,80.0
2026-04-18T19:29:14.832,2,880,161035,135843,80.0
2026-04-18T19:29:14.842,2,881,161035,135843,80.0
2026-04-18T19:29:14.852,2,882,161155,136105,80.0
2026-04-18T19:29:14.862,2,883,161155,136105,80.0
2026-04-18T19:29:14.871,2,884,161155,136105,80.0
2026-04-18T19:29:14.881,2,885,161155,136105,80.0
2026-04-18T19:29:14.892,2,886,161215,136235,80.0
2026-04-18T19:29:14.901,2,887,161215,136235,80.0
2026-04-18T19:29:14.912,2,888,161215,136235,80.0
2026-04-18T19:29:14.921,2,889,161215,136235,80.0
2026-04-18T19:29:14.932,2,890,161236,136278,80.0
2026-04-18T19:29:14.941,2,891,161236,136278,80.0
2026-04-18T19:29:14.951,2,892,161236,136278,80.0
2026-04-18T19:29:14.961,2,893,161236,136278,80.0
2026-04-18T19:29:14.972,2,894,161261,136339,80.0
2026-04-18T19:29:14.981,2,895,161261,136339,80.0
2026-04-18T19:29:14.991,2,896,161261,136339,80.0
2026-04-18T19:29:15.002,2,897,161261,136339,80.0
2026-04-18T19:29:15.012,2,898,161300,136418,80.0
2026-04-18T19:29:15.021,2,899,161300,136418,80.0
2026-04-18T19:29:15.031,2,900,161300,136418,80.0
2026-04-18T19:29:15.041,2,901,161300,136418,80.0
2026-04-18T19:29:15.051,2,902,161310,136455,80.0
2026-04-18T19:29:15.061,2,903,161310,136455,80.0
2026-04-18T19:29:15.071,2,904,161310,136455,80.0
2026-04-18T19:29:15.081,2,905,161310,136455,80.0
2026-04-18T19:29:15.091,2,906,161334,136510,80.0
2026-04-18T19:29:15.101,2,907,161334,136510,80.0
2026-04-18T19:29:15.111,2,908,161334,136510,80.0
2026-04-18T19:29:15.121,2,909,161334,136510,80.0
2026-04-18T19:29:15.131,2,910,161379,136590,80.0
2026-04-18T19:29:15.141,2,911,161379,136590,80.0
2026-04-18T19:29:15.151,2,912,161379,136590,80.0
2026-04-18T19:29:15.161,2,913,161379,136590,80.0
2026-04-18T19:29:15.171,2,914,161397,136621,80.0
2026-04-18T19:29:15.181,2,915,161397,136621,80.0
2026-04-18T19:29:15.191,2,916,161397,136621,80.0
2026-04-18T19:29:15.201,2,917,161397,136621,80.0
2026-04-18T19:29:15.211,2,918,161343,136523,80.0
2026-04-18T19:29:15.221,2,919,161343,136523,80.0
2026-04-18T19:29:15.231,2,920,161343,136523,80.0
2026-04-18T19:29:15.241,2,921,161343,136523,80.0
2026-04-18T19:29:15.251,2,922,161341,136526,80.0
2026-04-18T19:29:15.261,2,923,161341,136526,80.0
2026-04-18T19:29:15.271,2,924,161341,136526,80.0
2026-04-18T19:29:15.281,2,925,161341,136526,80.0
2026-04-18T19:29:15.291,2,926,161396,136599,80.0
2026-04-18T19:29:15.301,2,927,161396,136599,80.0
2026-04-18T19:29:15.311,2,928,161396,136599,80.0
2026-04-18T19:29:15.321,2,929,161396,136599,80.0
2026-04-18T19:29:15.331,2,930,161525,136797,80.0
2026-04-18T19:29:15.341,2,931,161525,136797,80.0
2026-04-18T19:29:15.351,2,932,161525,136797,80.0
2026-04-18T19:29:15.361,2,933,161525,136797,80.0
2026-04-18T19:29:15.370,2,934,161611,136979,80.0
2026-04-18T19:29:15.381,2,935,161611,136979,80.0
2026-04-18T19:29:15.391,2,936,161611,136979,80.0
2026-04-18T19:29:15.401,2,937,161611,136979,80.0
2026-04-18T19:29:15.411,2,938,161683,137149,80.0
2026-04-18T19:29:15.421,2,939,161683,137149,80.0
2026-04-18T19:29:15.431,2,940,161683,137149,80.0
2026-04-18T19:29:15.441,2,941,161683,137149,80.0
2026-04-18T19:29:15.451,2,942,161732,137296,80.0
2026-04-18T19:29:15.461,2,943,161732,137296,80.0
2026-04-18T19:29:15.470,2,944,161732,137296,80.0
2026-04-18T19:29:15.480,2,945,161732,137296,80.0
2026-04-18T19:29:15.490,2,946,161686,137264,80.0
2026-04-18T19:29:15.500,2,947,161686,137264,80.0
2026-04-18T19:29:15.510,2,948,161686,137264,80.0
2026-04-18T19:29:15.520,2,949,161686,137264,80.0
2026-04-18T19:29:15.530,2,950,161763,137442,80.0
2026-04-18T19:29:15.541,2,951,161763,137442,80.0
2026-04-18T19:29:15.551,2,952,161763,137442,80.0
2026-04-18T19:29:15.560,2,953,161763,137442,80.0
2026-04-18T19:29:15.570,2,954,161893,137726,80.0
2026-04-18T19:29:15.581,2,955,161893,137726,80.0
2026-04-18T19:29:15.591,2,956,161893,137726,80.0
2026-04-18T19:29:15.601,2,957,161893,137726,80.0
2026-04-18T19:29:15.611,2,958,161925,137770,80.0
2026-04-18T19:29:15.620,2,959,161925,137770,80.0
2026-04-18T19:29:15.631,2,960,161925,137770,80.0
2026-04-18T19:29:15.641,2,961,161925,137770,80.0
2026-04-18T19:29:15.651,2,962,161885,137721,80.0
2026-04-18T19:29:15.660,2,963,161885,137721,80.0
2026-04-18T19:29:15.671,2,964,161885,137721,80.0
2026-04-18T19:29:15.681,2,965,161885,137721,80.0
2026-04-18T19:29:15.691,2,966,161818,137582,80.0
2026-04-18T19:29:15.701,2,967,161818,137582,80.0
2026-04-18T19:29:15.711,2,968,161818,137582,80.0
2026-04-18T19:29:15.721,2,969,161818,137582,80.0
2026-04-18T19:29:15.730,2,970,161733,137443,80.0
2026-04-18T19:29:15.741,2,971,161733,137443,80.0
2026-04-18T19:29:15.751,2,972,161733,137443,80.0
2026-04-18T19:29:15.760,2,973,161733,137443,80.0
2026-04-18T19:29:15.770,2,974,161709,137357,80.0
2026-04-18T19:29:15.780,2,975,161709,137357,80.0
2026-04-18T19:29:15.790,2,976,161709,137357,80.0
2026-04-18T19:29:15.800,2,977,161709,137357,80.0
2026-04-18T19:29:15.811,2,978,161725,137368,80.0
2026-04-18T19:29:15.820,2,979,161725,137368,80.0
2026-04-18T19:29:15.831,2,980,161725,137368,80.0
2026-04-18T19:29:15.841,2,981,161725,137368,80.0
2026-04-18T19:29:15.850,2,982,161694,137318,80.0
2026-04-18T19:29:15.860,2,983,161694,137318,80.0
2026-04-18T19:29:15.870,2,984,161694,137318,80.0
2026-04-18T19:29:15.880,2,985,161694,137318,80.0
2026-04-18T19:29:15.890,2,986,161587,137103,80.0
2026-04-18T19:29:15.900,2,987,161587,137103,80.0
2026-04-18T19:29:15.910,2,988,161587,137103,80.0
2026-04-18T19:29:15.920,2,989,161587,137103,80.0
2026-04-18T19:29:15.930,2,990,161492,136881,80.0
2026-04-18T19:29:15.940,2,991,161492,136881,80.0
2026-04-18T19:29:15.950,2,992,161492,136881,80.0
2026-04-18T19:29:15.960,2,993,161492,136881,80.0
2026-04-18T19:29:15.971,2,994,161242,136359,80.0
2026-04-18T19:29:15.980,2,995,161242,136359,80.0
2026-04-18T19:29:15.990,2,996,161242,136359,80.0
2026-04-18T19:29:16.000,2,997,161242,136359,80.0
2026-04-18T19:29:16.010,2,998,160982,135819,80.0
2026-04-18T19:29:16.020,2,999,160982,135819,80.0
2026-04-18T19:29:16.030,2,1000,160982,135819,80.0
2026-04-18T19:29:16.040,2,1001,160982,135819,80.0
2026-04-18T19:29:19.046,3,0,159079,131872,79.0
2026-04-18T19:29:19.056,3,1,159079,131872,79.0
2026-04-18T19:29:19.066,3,2,159079,131872,79.0
2026-04-18T19:29:19.076,3,3,159079,131872,79.0
2026-04-18T19:29:19.086,3,4,159017,131728,79.0
2026-04-18T19:29:19.096,3,5,159017,131728,79.0
2026-04-18T19:29:19.106,3,6,159017,131728,79.0
2026-04-18T19:29:19.117,3,7,159017,131728,79.0
2026-04-18T19:29:19.126,3,8,158910,131512,79.0
2026-04-18T19:29:19.137,3,9,158910,131512,79.0
2026-04-18T19:29:19.147,3,10,158910,131512,79.0
2026-04-18T19:29:19.156,3,11,158910,131512,79.0
2026-04-18T19:29:19.166,3,12,158848,131350,79.0
2026-04-18T19:29:19.177,3,13,158848,131350,79.0
2026-04-18T19:29:19.186,3,14,158848,131350,79.0
2026-04-18T19:29:19.196,3,15,158848,131350,79.0
2026-04-18T19:29:19.207,3,16,158819,131316,79.0
2026-04-18T19:29:19.216,3,17,158819,131316,79.0
2026-04-18T19:29:19.226,3,18,158819,131316,79.0
2026-04-18T19:29:19.236,3,19,158819,131316,79.0
2026-04-18T19:29:19.246,3,20,158859,131406,79.0
2026-04-18T19:29:19.256,3,21,158859,131406,79.0
2026-04-18T19:29:19.266,3,22,158859,131406,79.0
2026-04-18T19:29:19.276,3,23,158859,131406,79.0
2026-04-18T19:29:19.286,3,24,158962,131586,79.0
2026-04-18T19:29:19.296,3,25,158962,131586,79.0
2026-04-18T19:29:19.306,3,26,158962,131586,79.0
2026-04-18T19:29:19.316,3,27,158962,131586,79.0
2026-04-18T19:29:19.326,3,28,159079,131835,79.0
2026-04-18T19:29:19.336,3,29,159079,131835,79.0
2026-04-18T19:29:19.346,3,30,159079,131835,79.0
2026-04-18T19:29:19.356,3,31,159079,131835,79.0
2026-04-18T19:29:19.367,3,32,159218,132138,79.0
2026-04-18T19:29:19.376,3,33,159218,132138,79.0
2026-04-18T19:29:19.386,3,34,159218,132138,79.0
2026-04-18T19:29:19.396,3,35,159218,132138,79.0
2026-04-18T19:29:19.406,3,36,159295,132307,79.0
2026-04-18T19:29:19.416,3,37,159295,132307,79.0
2026-04-18T19:29:19.426,3,38,159295,132307,79.0
2026-04-18T19:29:19.436,3,39,159295,132307,79.0
2026-04-18T19:29:19.446,3,40,159472,132664,79.0
2026-04-18T19:29:19.456,3,41,159472,132664,79.0
2026-04-18T19:29:19.466,3,42,159472,132664,79.0
2026-04-18T19:29:19.475,3,43,159472,132664,79.0
2026-04-18T19:29:19.486,3,44,159639,133007,79.0
2026-04-18T19:29:19.495,3,45,159639,133007,79.0
2026-04-18T19:29:19.506,3,46,159639,133007,79.0
2026-04-18T19:29:19.515,3,47,159639,133007,79.0
2026-04-18T19:29:19.526,3,48,159857,133410,79.0
2026-04-18T19:29:19.535,3,49,159857,133410,79.0
2026-04-18T19:29:19.545,3,50,159857,133410,79.0
2026-04-18T19:29:19.555,3,51,159857,133410,79.0
2026-04-18T19:29:19.565,3,52,159973,133678,79.0
2026-04-18T19:29:19.575,3,53,159973,133678,79.0
2026-04-18T19:29:19.585,3,54,159973,133678,79.0
2026-04-18T19:29:19.595,3,55,159973,133678,79.0
2026-04-18T19:29:19.606,3,56,160046,133816,79.0
2026-04-18T19:29:19.616,3,57,160046,133816,79.0
2026-04-18T19:29:19.625,3,58,160046,133816,79.0
2026-04-18T19:29:19.635,3,59,160046,133816,79.0
2026-04-18T19:29:19.646,3,60,160097,133904,79.0
2026-04-18T19:29:19.655,3,61,160097,133904,79.0
2026-04-18T19:29:19.666,3,62,160097,133904,79.0
2026-04-18T19:29:19.676,3,63,160097,133904,79.0
2026-04-18T19:29:19.686,3,64,160179,134037,79.0
2026-04-18T19:29:19.696,3,65,160179,134037,79.0
2026-04-18T19:29:19.706,3,66,160179,134037,79.0
2026-04-18T19:29:19.716,3,67,160179,134037,79.0
2026-04-18T19:29:19.726,3,68,160327,134318,79.0
2026-04-18T19:29:19.736,3,69,160327,134318,79.0
2026-04-18T19:29:19.745,3,70,160327,134318,79.0
2026-04-18T19:29:19.756,3,71,160327,134318,79.0
2026-04-18T19:29:19.766,3,72,160415,134480,79.0
2026-04-18T19:29:19.776,3,73,160415,134480,79.0
2026-04-18T19:29:19.786,3,74,160415,134480,79.0
2026-04-18T19:29:19.796,3,75,160415,134480,79.0
2026-04-18T19:29:19.805,3,76,160488,134586,79.0
2026-04-18T19:29:19.816,3,77,160488,134586,79.0
2026-04-18T19:29:19.826,3,78,160488,134586,79.0
2026-04-18T19:29:19.835,3,79,160488,134586,79.0
2026-04-18T19:29:19.846,3,80,160619,134807,79.0
2026-04-18T19:29:19.855,3,81,160619,134807,79.0
2026-04-18T19:29:19.865,3,82,160619,134807,79.0
2026-04-18T19:29:19.876,3,83,160619,134807,79.0
2026-04-18T19:29:19.885,3,84,160698,134948,79.0
2026-04-18T19:29:19.895,3,85,160698,134948,79.0
2026-04-18T19:29:19.905,3,86,160698,134948,79.0
2026-04-18T19:29:19.915,3,87,160698,134948,79.0
2026-04-18T19:29:19.926,3,88,160722,134977,79.0
2026-04-18T19:29:19.935,3,89,160722,134977,79.0
2026-04-18T19:29:19.945,3,90,160722,134977,79.0
2026-04-18T19:29:19.955,3,91,160722,134977,79.0
2026-04-18T19:29:19.965,3,92,160799,135123,79.0
2026-04-18T19:29:19.976,3,93,160799,135123,79.0
2026-04-18T19:29:19.986,3,94,160799,135123,79.0
2026-04-18T19:29:19.996,3,95,160799,135123,79.0
2026-04-18T19:29:20.006,3,96,160873,135241,79.0
2026-04-18T19:29:20.015,3,97,160873,135241,79.0
2026-04-18T19:29:20.026,3,98,160873,135241,79.0
2026-04-18T19:29:20.035,3,99,160873,135241,79.0
2026-04-18T19:29:20.046,3,100,160992,135453,79.0
2026-04-18T19:29:20.055,3,101,160992,135453,79.0
2026-04-18T19:29:20.065,3,102,160992,135453,79.0
2026-04-18T19:29:20.075,3,103,160992,135453,79.0
2026-04-18T19:29:20.084,3,104,161133,135699,79.0
2026-04-18T19:29:20.095,3,105,161133,135699,79.0
2026-04-18T19:29:20.105,3,106,161133,135699,79.0
2026-04-18T19:29:20.115,3,107,161133,135699,79.0
2026-04-18T19:29:20.125,3,108,161305,136052,79.0
2026-04-18T19:29:20.135,3,109,161305,136052,79.0
2026-04-18T19:29:20.145,3,110,161305,136052,79.0
2026-04-18T19:29:20.155,3,111,161305,136052,79.0
2026-04-18T19:29:20.165,3,112,161394,136222,79.0
2026-04-18T19:29:20.175,3,113,161394,136222,79.0
2026-04-18T19:29:20.185,3,114,161394,136222,79.0
2026-04-18T19:29:20.195,3,115,161394,136222,79.0
2026-04-18T19:29:20.205,3,116,161385,136249,79.0
2026-04-18T19:29:20.215,3,117,161385,136249,79.0
2026-04-18T19:29:20.225,3,118,161385,136249,79.0
2026-04-18T19:29:20.235,3,119,161385,136249,79.0
2026-04-18T19:29:20.245,3,120,161448,136391,79.0
2026-04-18T19:29:20.255,3,121,161448,136391,79.0
2026-04-18T19:29:20.265,3,122,161448,136391,79.0
2026-04-18T19:29:20.275,3,123,161448,136391,79.0
2026-04-18T19:29:20.285,3,124,161503,136511,79.0
2026-04-18T19:29:20.295,3,125,161503,136511,79.0
2026-04-18T19:29:20.305,3,126,161503,136511,79.0
2026-04-18T19:29:20.315,3,127,161503,136511,79.0
2026-04-18T19:29:20.325,3,128,161545,136553,79.0
2026-04-18T19:29:20.335,3,129,161545,136553,79.0
2026-04-18T19:29:20.345,3,130,161545,136553,79.0
2026-04-18T19:29:20.355,3,131,161545,136553,79.0
2026-04-18T19:29:20.365,3,132,161448,136392,79.0
2026-04-18T19:29:20.375,3,133,161448,136392,79.0
2026-04-18T19:29:20.385,3,134,161448,136392,79.0
2026-04-18T19:29:20.395,3,135,161448,136392,79.0
2026-04-18T19:29:20.405,3,136,161303,136143,79.0
2026-04-18T19:29:20.415,3,137,161303,136143,79.0
2026-04-18T19:29:20.425,3,138,161303,136143,79.0
2026-04-18T19:29:20.435,3,139,161303,136143,79.0
2026-04-18T19:29:20.445,3,140,161156,135862,79.0
2026-04-18T19:29:20.455,3,141,161156,135862,79.0
2026-04-18T19:29:20.465,3,142,161156,135862,79.0
2026-04-18T19:29:20.475,3,143,161156,135862,79.0
2026-04-18T19:29:20.485,3,144,161022,135636,79.0
2026-04-18T19:29:20.494,3,145,161022,135636,79.0
2026-04-18T19:29:20.504,3,146,161022,135636,79.0
2026-04-18T19:29:20.515,3,147,161022,135636,79.0
2026-04-18T19:29:20.525,3,148,160772,135161,79.0
2026-04-18T19:29:20.535,3,149,160772,135161,79.0
2026-04-18T19:29:20.545,3,150,160772,135161,79.0
2026-04-18T19:29:20.555,3,151,160772,135161,79.0
2026-04-18T19:29:20.564,3,152,160506,134653,79.0
2026-04-18T19:29:20.574,3,153,160506,134653,79.0
2026-04-18T19:29:20.585,3,154,160506,134653,79.0
2026-04-18T19:29:20.595,3,155,160506,134653,79.0
2026-04-18T19:29:20.605,3,156,160197,134089,79.0
2026-04-18T19:29:20.615,3,157,160197,134089,79.0
2026-04-18T19:29:20.625,3,158,160197,134089,79.0
2026-04-18T19:29:20.635,3,159,160197,134089,79.0
2026-04-18T19:29:20.645,3,160,159885,133549,79.0
2026-04-18T19:29:20.655,3,161,159885,133549,79.0
2026-04-18T19:29:20.665,3,162,159885,133549,79.0
2026-04-18T19:29:20.675,3,163,159885,133549,79.0
2026-04-18T19:29:20.685,3,164,159526,132883,79.0
2026-04-18T19:29:20.695,3,165,159526,132883,79.0
2026-04-18T19:29:20.705,3,166,159526,132883,79.0
2026-04-18T19:29:20.715,3,167,159526,132883,79.0
2026-04-18T19:29:20.725,3,168,159212,132319,79.0
2026-04-18T19:29:20.735,3,169,159212,132319,79.0
2026-04-18T19:29:20.744,3,170,159212,132319,79.0
2026-04-18T19:29:20.755,3,171,159212,132319,79.0
2026-04-18T19:29:20.764,3,172,158976,131919,79.0
2026-04-18T19:29:20.774,3,173,158976,131919,79.0
2026-04-18T19:29:20.784,3,174,158976,131919,79.0
2026-04-18T19:29:20.795,3,175,158976,131919,79.0
2026-04-18T19:29:20.804,3,176,158779,131577,79.0
2026-04-18T19:29:20.814,3,177,158779,131577,79.0
2026-04-18T19:29:20.824,3,178,158779,131577,79.0
2026-04-18T19:29:20.834,3,179,158779,131577,79.0
2026-04-18T19:29:20.844,3,180,158635,131332,79.0
2026-04-18T19:29:20.854,3,181,158635,131332,79.0
2026-04-18T19:29:20.864,3,182,158635,131332,79.0
2026-04-18T19:29:20.874,3,183,158635,131332,79.0
2026-04-18T19:29:20.884,3,184,158545,131186,79.0
2026-04-18T19:29:20.894,3,185,158545,131186,79.0
2026-04-18T19:29:20.904,3,186,158545,131186,79.0
2026-04-18T19:29:20.914,3,187,158545,131186,79.0
2026-04-18T19:29:20.924,3,188,158486,131138,79.0
2026-04-18T19:29:20.935,3,189,158486,131138,79.0
2026-04-18T19:29:20.944,3,190,158486,131138,79.0
2026-04-18T19:29:20.954,3,191,158486,131138,79.0
2026-04-18T19:29:20.964,3,192,158387,131028,79.0
2026-04-18T19:29:20.974,3,193,158387,131028,79.0
2026-04-18T19:29:20.984,3,194,158387,131028,79.0
2026-04-18T19:29:20.994,3,195,158387,131028,79.0
2026-04-18T19:29:21.004,3,196,158315,130969,79.0
2026-04-18T19:29:21.014,3,197,158315,130969,79.0
2026-04-18T19:29:21.024,3,198,158315,130969,79.0
2026-04-18T19:29:21.034,3,199,158315,130969,79.0
2026-04-18T19:29:21.044,3,200,158234,130884,79.0
2026-04-18T19:29:21.054,3,201,158234,130884,79.0
2026-04-18T19:29:21.064,3,202,158234,130884,79.0
2026-04-18T19:29:21.074,3,203,158234,130884,79.0
2026-04-18T19:29:21.084,3,204,158135,130735,79.0
2026-04-18T19:29:21.094,3,205,158135,130735,79.0
2026-04-18T19:29:21.104,3,206,158135,130735,79.0
2026-04-18T19:29:21.114,3,207,158135,130735,79.0
2026-04-18T19:29:21.124,3,208,158061,130601,79.0
2026-04-18T19:29:21.134,3,209,158061,130601,79.0
2026-04-18T19:29:21.144,3,210,158061,130601,79.0
2026-04-18T19:29:21.154,3,211,158061,130601,79.0
2026-04-18T19:29:21.164,3,212,158006,130509,79.0
2026-04-18T19:29:21.174,3,213,158006,130509,79.0
2026-04-18T19:29:21.184,3,214,158006,130509,79.0
2026-04-18T19:29:21.194,3,215,158006,130509,79.0
2026-04-18T19:29:21.204,3,216,157917,130394,79.0
2026-04-18T19:29:21.214,3,217,157917,130394,79.0
2026-04-18T19:29:21.224,3,218,157917,130394,79.0
2026-04-18T19:29:21.233,3,219,157917,130394,79.0
2026-04-18T19:29:21.244,3,220,157906,130345,79.0
2026-04-18T19:29:21.254,3,221,157906,130345,79.0
2026-04-18T19:29:21.264,3,222,157906,130345,79.0
2026-04-18T19:29:21.274,3,223,157906,130345,79.0
2026-04-18T19:29:21.284,3,224,157898,130353,79.0
2026-04-18T19:29:21.294,3,225,157898,130353,79.0
2026-04-18T19:29:21.303,3,226,157898,130353,79.0
2026-04-18T19:29:21.314,3,227,157898,130353,79.0
2026-04-18T19:29:21.323,3,228,157877,130313,79.0
2026-04-18T19:29:21.333,3,229,157877,130313,79.0
2026-04-18T19:29:21.343,3,230,157877,130313,79.0
2026-04-18T19:29:21.353,3,231,157877,130313,79.0
2026-04-18T19:29:21.363,3,232,157867,130265,79.0
2026-04-18T19:29:21.374,3,233,157867,130265,79.0
2026-04-18T19:29:21.383,3,234,157867,130265,79.0
2026-04-18T19:29:21.393,3,235,157867,130265,79.0
2026-04-18T19:29:21.403,3,236,157841,130221,79.0
2026-04-18T19:29:21.414,3,237,157841,130221,79.0
2026-04-18T19:29:21.423,3,238,157841,130221,79.0
2026-04-18T19:29:21.433,3,239,157841,130221,79.0
2026-04-18T19:29:21.443,3,240,157830,130171,79.0
2026-04-18T19:29:21.453,3,241,157830,130171,79.0
2026-04-18T19:29:21.463,3,242,157830,130171,79.0
2026-04-18T19:29:21.473,3,243,157830,130171,79.0
2026-04-18T19:29:21.483,3,244,157822,130123,79.0
2026-04-18T19:29:21.493,3,245,157822,130123,79.0
2026-04-18T19:29:21.503,3,246,157822,130123,79.0
2026-04-18T19:29:21.513,3,247,157822,130123,79.0
2026-04-18T19:29:21.523,3,248,157837,130132,79.0
2026-04-18T19:29:21.533,3,249,157837,130132,79.0
2026-04-18T19:29:21.543,3,250,157837,130132,79.0
2026-04-18T19:29:21.553,3,251,157837,130132,79.0
2026-04-18T19:29:21.563,3,252,157919,130271,79.0
2026-04-18T19:29:21.573,3,253,157919,130271,79.0
2026-04-18T19:29:21.583,3,254,157919,130271,79.0
2026-04-18T19:29:21.593,3,255,157919,130271,79.0
2026-04-18T19:29:21.603,3,256,158056,130511,79.0
2026-04-18T19:29:21.613,3,257,158056,130511,79.0
2026-04-18T19:29:21.623,3,258,158056,130511,79.0
2026-04-18T19:29:21.633,3,259,158056,130511,79.0
2026-04-18T19:29:21.643,3,260,158185,130739,79.0
2026-04-18T19:29:21.653,3,261,158185,130739,79.0
2026-04-18T19:29:21.663,3,262,158185,130739,79.0
2026-04-18T19:29:21.673,3,263,158185,130739,79.0
2026-04-18T19:29:21.683,3,264,158331,131037,79.0
2026-04-18T19:29:21.693,3,265,158331,131037,79.0
2026-04-18T19:29:21.703,3,266,158331,131037,79.0
2026-04-18T19:29:21.713,3,267,158331,131037,79.0
2026-04-18T19:29:21.723,3,268,158477,131280,79.0
2026-04-18T19:29:21.733,3,269,158477,131280,79.0
2026-04-18T19:29:21.743,3,270,158477,131280,79.0
2026-04-18T19:29:21.753,3,271,158477,131280,79.0
2026-04-18T19:29:21.763,3,272,158667,131606,79.0
2026-04-18T19:29:21.773,3,273,158667,131606,79.0
2026-04-18T19:29:21.783,3,274,158667,131606,79.0
2026-04-18T19:29:21.793,3,275,158667,131606,79.0
2026-04-18T19:29:21.803,3,276,158857,131894,79.0
2026-04-18T19:29:21.813,3,277,158857,131894,79.0
2026-04-18T19:29:21.823,3,278,158857,131894,79.0
2026-04-18T19:29:21.833,3,279,158857,131894,79.0
2026-04-18T19:29:21.843,3,280,159079,132249,79.0
2026-04-18T19:29:21.853,3,281,159079,132249,79.0
2026-04-18T19:29:21.863,3,282,159079,132249,79.0
2026-04-18T19:29:21.873,3,283,159079,132249,79.0
2026-04-18T19:29:21.883,3,284,159204,132462,79.0
2026-04-18T19:29:21.893,3,285,159204,132462,79.0
2026-04-18T19:29:21.903,3,286,159204,132462,79.0
2026-04-18T19:29:21.913,3,287,159204,132462,79.0
2026-04-18T19:29:21.923,3,288,159278,132608,79.0
2026-04-18T19:29:21.933,3,289,159278,132608,79.0
2026-04-18T19:29:21.943,3,290,159278,132608,79.0
2026-04-18T19:29:21.952,3,291,159278,132608,79.0
2026-04-18T19:29:21.963,3,292,159337,132744,79.0
2026-04-18T19:29:21.973,3,293,159337,132744,79.0
2026-04-18T19:29:21.983,3,294,159337,132744,79.0
2026-04-18T19:29:21.993,3,295,159337,132744,79.0
2026-04-18T19:29:22.003,3,296,159456,132964,79.0
2026-04-18T19:29:22.013,3,297,159456,132964,79.0
2026-04-18T19:29:22.023,3,298,159456,132964,79.0
2026-04-18T19:29:22.032,3,299,159456,132964,79.0
2026-04-18T19:29:22.043,3,300,159695,133407,79.0
2026-04-18T19:29:22.053,3,301,159695,133407,79.0
2026-04-18T19:29:22.063,3,302,159695,133407,79.0
2026-04-18T19:29:22.072,3,303,159695,133407,79.0
2026-04-18T19:29:22.082,3,304,160285,134349,79.0
2026-04-18T19:29:22.092,3,305,160285,134349,79.0
2026-04-18T19:29:22.102,3,306,160285,134349,79.0
2026-04-18T19:29:22.113,3,307,160285,134349,79.0
2026-04-18T19:29:22.123,3,308,160817,135276,79.0
2026-04-18T19:29:22.133,3,309,160817,135276,79.0
2026-04-18T19:29:22.142,3,310,160817,135276,79.0
2026-04-18T19:29:22.152,3,311,160817,135276,79.0
2026-04-18T19:29:22.163,3,312,161085,135786,79.0
2026-04-18T19:29:22.173,3,313,161085,135786,79.0
2026-04-18T19:29:22.183,3,314,161085,135786,79.0
2026-04-18T19:29:22.193,3,315,161085,135786,79.0
2026-04-18T19:29:22.203,3,316,161216,136059,79.0
2026-04-18T19:29:22.213,3,317,161216,136059,79.0
2026-04-18T19:29:22.222,3,318,161216,136059,79.0
2026-04-18T19:29:22.232,3,319,161216,136059,79.0
2026-04-18T19:29:22.242,3,320,161179,135917,79.0
2026-04-18T19:29:22.252,3,321,161179,135917,79.0
2026-04-18T19:29:22.262,3,322,161179,135917,79.0
2026-04-18T19:29:22.273,3,323,161179,135917,79.0
2026-04-18T19:29:22.282,3,324,161119,135806,79.0
2026-04-18T19:29:22.292,3,325,161119,135806,79.0
2026-04-18T19:29:22.302,3,326,161119,135806,79.0
2026-04-18T19:29:22.312,3,327,161119,135806,79.0
2026-04-18T19:29:22.322,3,328,161125,135785,79.0
2026-04-18T19:29:22.332,3,329,161125,135785,79.0
2026-04-18T19:29:22.342,3,330,161125,135785,79.0
2026-04-18T19:29:22.352,3,331,161125,135785,79.0
2026-04-18T19:29:22.362,3,332,161109,135722,79.0
2026-04-18T19:29:22.372,3,333,161109,135722,79.0
2026-04-18T19:29:22.383,3,334,161109,135722,79.0
2026-04-18T19:29:22.392,3,335,161109,135722,79.0
2026-04-18T19:29:22.402,3,336,161122,135755,79.0
2026-04-18T19:29:22.412,3,337,161122,135755,79.0
2026-04-18T19:29:22.422,3,338,161122,135755,79.0
2026-04-18T19:29:22.432,3,339,161122,135755,79.0
2026-04-18T19:29:22.442,3,340,161136,135814,79.0
2026-04-18T19:29:22.452,3,341,161136,135814,79.0
2026-04-18T19:29:22.462,3,342,161136,135814,79.0
2026-04-18T19:29:22.472,3,343,161136,135814,79.0
2026-04-18T19:29:22.482,3,344,161175,135879,79.0
2026-04-18T19:29:22.492,3,345,161175,135879,79.0
2026-04-18T19:29:22.502,3,346,161175,135879,79.0
2026-04-18T19:29:22.512,3,347,161175,135879,79.0
2026-04-18T19:29:22.522,3,348,161212,135971,79.0
2026-04-18T19:29:22.532,3,349,161212,135971,79.0
2026-04-18T19:29:22.542,3,350,161212,135971,79.0
2026-04-18T19:29:22.552,3,351,161212,135971,79.0
2026-04-18T19:29:22.562,3,352,161360,136279,79.0
2026-04-18T19:29:22.572,3,353,161360,136279,79.0
2026-04-18T19:29:22.582,3,354,161360,136279,79.0
2026-04-18T19:29:22.592,3,355,161360,136279,79.0
2026-04-18T19:29:22.602,3,356,161546,136636,79.0
2026-04-18T19:29:22.613,3,357,161546,136636,79.0
2026-04-18T19:29:22.622,3,358,161546,136636,79.0
2026-04-18T19:29:22.632,3,359,161546,136636,79.0
2026-04-18T19:29:22.642,3,360,161700,136885,79.0
2026-04-18T19:29:22.652,3,361,161700,136885,79.0
2026-04-18T19:29:22.662,3,362,161700,136885,79.0
2026-04-18T19:29:22.672,3,363,161700,136885,79.0
2026-04-18T19:29:22.682,3,364,161699,136879,79.0
2026-04-18T19:29:22.692,3,365,161699,136879,79.0
2026-04-18T19:29:22.702,3,366,161699,136879,79.0
2026-04-18T19:29:22.712,3,367,161699,136879,79.0
2026-04-18T19:29:22.722,3,368,161641,136776,79.0
2026-04-18T19:29:22.732,3,369,161641,136776,79.0
2026-04-18T19:29:22.742,3,370,161641,136776,79.0
2026-04-18T19:29:22.752,3,371,161641,136776,79.0
2026-04-18T19:29:22.762,3,372,161583,136719,79.0
2026-04-18T19:29:22.772,3,373,161583,136719,79.0
2026-04-18T19:29:22.782,3,374,161583,136719,79.0
2026-04-18T19:29:22.792,3,375,161583,136719,79.0
2026-04-18T19:29:22.802,3,376,161559,136715,79.0
2026-04-18T19:29:22.812,3,377,161559,136715,79.0
2026-04-18T19:29:22.822,3,378,161559,136715,79.0
2026-04-18T19:29:22.832,3,379,161559,136715,79.0
2026-04-18T19:29:22.842,3,380,161615,136857,79.0
2026-04-18T19:29:22.852,3,381,161615,136857,79.0
2026-04-18T19:29:22.862,3,382,161615,136857,79.0
2026-04-18T19:29:22.872,3,383,161615,136857,79.0
2026-04-18T19:29:22.882,3,384,161669,136978,79.0
2026-04-18T19:29:22.892,3,385,161669,136978,79.0
2026-04-18T19:29:22.902,3,386,161669,136978,79.0
2026-04-18T19:29:22.912,3,387,161669,136978,79.0
2026-04-18T19:29:22.922,3,388,161728,137101,79.0
2026-04-18T19:29:22.933,3,389,161728,137101,79.0
2026-04-18T19:29:22.942,3,390,161728,137101,79.0
2026-04-18T19:29:22.952,3,391,161728,137101,79.0
2026-04-18T19:29:22.962,3,392,161781,137248,79.0
2026-04-18T19:29:22.972,3,393,161781,137248,79.0
2026-04-18T19:29:22.982,3,394,161781,137248,79.0
2026-04-18T19:29:22.992,3,395,161781,137248,79.0
2026-04-18T19:29:23.002,3,396,161776,137209,79.0
2026-04-18T19:29:23.013,3,397,161776,137209,79.0
2026-04-18T19:29:23.022,3,398,161776,137209,79.0
2026-04-18T19:29:23.032,3,399,161776,137209,79.0
2026-04-18T19:29:23.042,3,400,161815,137298,79.0
2026-04-18T19:29:23.052,3,401,161815,137298,79.0
2026-04-18T19:29:23.061,3,402,161815,137298,79.0
2026-04-18T19:29:23.071,3,403,161815,137298,79.0
2026-04-18T19:29:23.081,3,404,161845,137406,79.0
2026-04-18T19:29:23.092,3,405,161845,137406,79.0
2026-04-18T19:29:23.102,3,406,161845,137406,79.0
2026-04-18T19:29:23.112,3,407,161845,137406,79.0
2026-04-18T19:29:23.122,3,408,161986,137657,79.0
2026-04-18T19:29:23.132,3,409,161986,137657,79.0
2026-04-18T19:29:23.142,3,410,161986,137657,79.0
2026-04-18T19:29:23.152,3,411,161986,137657,79.0
2026-04-18T19:29:23.162,3,412,162103,137871,79.0
2026-04-18T19:29:23.171,3,413,162103,137871,79.0
2026-04-18T19:29:23.182,3,414,162103,137871,79.0
2026-04-18T19:29:23.191,3,415,162103,137871,79.0
2026-04-18T19:29:23.202,3,416,162270,138208,79.0
2026-04-18T19:29:23.211,3,417,162270,138208,79.0
2026-04-18T19:29:23.222,3,418,162270,138208,79.0
2026-04-18T19:29:23.232,3,419,162270,138208,79.0
2026-04-18T19:29:23.242,3,420,162373,138461,79.0
2026-04-18T19:29:23.252,3,421,162373,138461,79.0
2026-04-18T19:29:23.262,3,422,162373,138461,79.0
2026-04-18T19:29:23.271,3,423,162373,138461,79.0
2026-04-18T19:29:23.281,3,424,162455,138605,79.0
2026-04-18T19:29:23.291,3,425,162455,138605,79.0
2026-04-18T19:29:23.302,3,426,162455,138605,79.0
2026-04-18T19:29:23.312,3,427,162455,138605,79.0
2026-04-18T19:29:23.322,3,428,162582,138876,79.0
2026-04-18T19:29:23.332,3,429,162582,138876,79.0
2026-04-18T19:29:23.341,3,430,162582,138876,79.0
2026-04-18T19:29:23.351,3,431,162582,138876,79.0
2026-04-18T19:29:23.361,3,432,162690,139059,79.0
2026-04-18T19:29:23.371,3,433,162690,139059,79.0
2026-04-18T19:29:23.381,3,434,162690,139059,79.0
2026-04-18T19:29:23.391,3,435,162690,139059,79.0
2026-04-18T19:29:23.401,3,436,162785,139205,79.0
2026-04-18T19:29:23.411,3,437,162785,139205,79.0
2026-04-18T19:29:23.421,3,438,162785,139205,79.0
2026-04-18T19:29:23.431,3,439,162785,139205,79.0
2026-04-18T19:29:23.441,3,440,162774,139172,79.0
2026-04-18T19:29:23.451,3,441,162774,139172,79.0
2026-04-18T19:29:23.461,3,442,162774,139172,79.0
2026-04-18T19:29:23.471,3,443,162774,139172,79.0
2026-04-18T19:29:23.481,3,444,162720,139060,79.0
2026-04-18T19:29:23.491,3,445,162720,139060,79.0
2026-04-18T19:29:23.501,3,446,162720,139060,79.0
2026-04-18T19:29:23.511,3,447,162720,139060,79.0
2026-04-18T19:29:23.521,3,448,162658,138906,79.0
2026-04-18T19:29:23.531,3,449,162658,138906,79.0
