timestamp,window,sample,ir_raw,red_raw,true_hr
2026-04-18T19:46:11.394,1,0,170955,143701,83.0
2026-04-18T19:46:11.434,1,1,170955,143701,83.0
2026-04-18T19:46:11.475,1,2,170955,143701,83.0
2026-04-18T19:46:11.514,1,3,170955,143701,83.0
2026-04-18T19:46:11.554,1,4,171280,144542,83.0
2026-04-18T19:46:11.594,1,5,171280,144542,83.0
2026-04-18T19:46:11.634,1,6,171280,144542,83.0
2026-04-18T19:46:11.674,1,7,171280,144542,83.0
2026-04-18T19:46:11.714,1,8,168206,138443,83.0
2026-04-18T19:46:11.754,1,9,168206,138443,83.0
2026-04-18T19:46:11.794,1,10,168206,138443,83.0
2026-04-18T19:46:11.834,1,11,168206,138443,83.0
2026-04-18T19:46:11.874,1,12,166985,136743,83.0
2026-04-18T19:46:11.913,1,13,166985,136743,83.0
2026-04-18T19:46:11.953,1,14,166985,136743,83.0
2026-04-18T19:46:11.994,1,15,166985,136743,83.0
2026-04-18T19:46:12.034,1,16,164163,132689,83.0
2026-04-18T19:46:12.074,1,17,164163,132689,83.0
2026-04-18T19:46:12.114,1,18,164163,132689,83.0
2026-04-18T19:46:12.154,1,19,164163,132689,83.0
2026-04-18T19:46:12.193,1,20,160533,127604,83.0
2026-04-18T19:46:12.233,1,21,160533,127604,83.0
2026-04-18T19:46:12.273,1,22,160533,127604,83.0
2026-04-18T19:46:12.314,1,23,160533,127604,83.0
2026-04-18T19:46:12.353,1,24,159059,125744,83.0
2026-04-18T19:46:12.393,1,25,159059,125744,83.0
2026-04-18T19:46:12.433,1,26,159059,125744,83.0
2026-04-18T19:46:12.473,1,27,159059,125744,83.0
2026-04-18T19:46:12.513,1,28,158031,124374,83.0
2026-04-18T19:46:12.553,1,29,158031,124374,83.0
2026-04-18T19:46:12.593,1,30,158031,124374,83.0
2026-04-18T19:46:12.633,1,31,158031,124374,83.0
2026-04-18T19:46:12.673,1,32,157145,123431,83.0
2026-04-18T19:46:12.713,1,33,157145,123431,83.0
2026-04-18T19:46:12.753,1,34,157145,123431,83.0
2026-04-18T19:46:12.793,1,35,157145,123431,83.0
2026-04-18T19:46:12.833,1,36,156284,122672,83.0
2026-04-18T19:46:12.873,1,37,156284,122672,83.0
2026-04-18T19:46:12.913,1,38,156284,122672,83.0
2026-04-18T19:46:12.953,1,39,156284,122672,83.0
2026-04-18T19:46:12.993,1,40,156236,122976,83.0
2026-04-18T19:46:13.033,1,41,156236,122976,83.0
2026-04-18T19:46:13.072,1,42,156236,122976,83.0
2026-04-18T19:46:13.112,1,43,156236,122976,83.0
2026-04-18T19:46:13.152,1,44,156544,123443,83.0
2026-04-18T19:46:13.192,1,45,156544,123443,83.0
2026-04-18T19:46:13.232,1,46,156544,123443,83.0
2026-04-18T19:46:13.272,1,47,156544,123443,83.0
2026-04-18T19:46:13.313,1,48,156818,124154,83.0
2026-04-18T19:46:13.352,1,49,156818,124154,83.0
2026-04-18T19:46:13.392,1,50,156818,124154,83.0
2026-04-18T19:46:13.432,1,51,156818,124154,83.0
2026-04-18T19:46:13.472,1,52,157900,126786,83.0
2026-04-18T19:46:13.512,1,53,157900,126786,83.0
2026-04-18T19:46:13.552,1,54,157900,126786,83.0
2026-04-18T19:46:13.592,1,55,157900,126786,83.0
2026-04-18T19:46:13.631,1,56,161078,132101,83.0
2026-04-18T19:46:13.672,1,57,161078,132101,83.0
2026-04-18T19:46:13.711,1,58,161078,132101,83.0
2026-04-18T19:46:13.751,1,59,161078,132101,83.0
2026-04-18T19:46:13.792,1,60,164053,136363,83.0
2026-04-18T19:46:13.832,1,61,164053,136363,83.0
2026-04-18T19:46:13.872,1,62,164053,136363,83.0
2026-04-18T19:46:13.912,1,63,164053,136363,83.0
2026-04-18T19:46:13.952,1,64,164578,136176,83.0
2026-04-18T19:46:13.991,1,65,164578,136176,83.0
2026-04-18T19:46:14.031,1,66,164578,136176,83.0
2026-04-18T19:46:14.071,1,67,164578,136176,83.0
2026-04-18T19:46:14.111,1,68,164388,135028,83.0
2026-04-18T19:46:14.151,1,69,164388,135028,83.0
2026-04-18T19:46:14.191,1,70,164388,135028,83.0
2026-04-18T19:46:14.231,1,71,164388,135028,83.0
2026-04-18T19:46:14.271,1,72,165155,136485,83.0
2026-04-18T19:46:14.311,1,73,165155,136485,83.0
2026-04-18T19:46:14.351,1,74,165155,136485,83.0
2026-04-18T19:46:14.391,1,75,165155,136485,83.0
2026-04-18T19:46:14.431,1,76,164940,135995,83.0
2026-04-18T19:46:14.471,1,77,164940,135995,83.0
2026-04-18T19:46:14.510,1,78,164940,135995,83.0
2026-04-18T19:46:14.551,1,79,164940,135995,83.0
2026-04-18T19:46:14.591,1,80,164993,136035,83.0
2026-04-18T19:46:14.630,1,81,164993,136035,83.0
2026-04-18T19:46:14.670,1,82,164993,136035,83.0
2026-04-18T19:46:14.710,1,83,164993,136035,83.0
2026-04-18T19:46:14.750,1,84,165593,137165,83.0
2026-04-18T19:46:14.790,1,85,165593,137165,83.0
2026-04-18T19:46:14.830,1,86,165593,137165,83.0
2026-04-18T19:46:14.870,1,87,165593,137165,83.0
2026-04-18T19:46:14.910,1,88,165687,137497,83.0
2026-04-18T19:46:14.950,1,89,165687,137497,83.0
2026-04-18T19:46:14.990,1,90,165687,137497,83.0
2026-04-18T19:46:15.030,1,91,165687,137497,83.0
2026-04-18T19:46:15.070,1,92,164956,136212,83.0
2026-04-18T19:46:15.110,1,93,164956,136212,83.0
2026-04-18T19:46:15.150,1,94,164956,136212,83.0
2026-04-18T19:46:15.190,1,95,164956,136212,83.0
2026-04-18T19:46:15.230,1,96,162964,132672,83.0
2026-04-18T19:46:15.270,1,97,162964,132672,83.0
2026-04-18T19:46:15.310,1,98,162964,132672,83.0
2026-04-18T19:46:15.350,1,99,162964,132672,83.0
2026-04-18T19:46:15.390,1,100,161705,130403,83.0
2026-04-18T19:46:15.429,1,101,161705,130403,83.0
2026-04-18T19:46:15.470,1,102,161705,130403,83.0
2026-04-18T19:46:15.510,1,103,161705,130403,83.0
2026-04-18T19:46:15.549,1,104,161039,129228,83.0
2026-04-18T19:46:15.590,1,105,161039,129228,83.0
2026-04-18T19:46:15.629,1,106,161039,129228,83.0
2026-04-18T19:46:15.669,1,107,161039,129228,83.0
2026-04-18T19:46:15.709,1,108,161061,129323,83.0
2026-04-18T19:46:15.749,1,109,161061,129323,83.0
2026-04-18T19:46:15.790,1,110,161061,129323,83.0
2026-04-18T19:46:15.829,1,111,161061,129323,83.0
2026-04-18T19:46:15.869,1,112,161775,130900,83.0
2026-04-18T19:46:15.909,1,113,161775,130900,83.0
2026-04-18T19:46:15.949,1,114,161775,130900,83.0
2026-04-18T19:46:15.989,1,115,161775,130900,83.0
2026-04-18T19:46:16.030,1,116,162967,133201,83.0
2026-04-18T19:46:16.069,1,117,162967,133201,83.0
2026-04-18T19:46:16.109,1,118,162967,133201,83.0
2026-04-18T19:46:16.148,1,119,162967,133201,83.0
2026-04-18T19:46:16.189,1,120,162801,132899,83.0
2026-04-18T19:46:16.229,1,121,162801,132899,83.0
2026-04-18T19:46:16.269,1,122,162801,132899,83.0
2026-04-18T19:46:16.309,1,123,162801,132899,83.0
2026-04-18T19:46:16.349,1,124,162394,131993,83.0
2026-04-18T19:46:16.389,1,125,162394,131993,83.0
2026-04-18T19:46:16.428,1,126,162394,131993,83.0
2026-04-18T19:46:16.468,1,127,162394,131993,83.0
2026-04-18T19:46:16.509,1,128,162947,132766,83.0
2026-04-18T19:46:16.549,1,129,162947,132766,83.0
2026-04-18T19:46:16.588,1,130,162947,132766,83.0
2026-04-18T19:46:16.628,1,131,162947,132766,83.0
2026-04-18T19:46:16.668,1,132,162305,131551,83.0
2026-04-18T19:46:16.708,1,133,162305,131551,83.0
2026-04-18T19:46:16.748,1,134,162305,131551,83.0
2026-04-18T19:46:16.788,1,135,162305,131551,83.0
2026-04-18T19:46:16.828,1,136,161531,130125,83.0
2026-04-18T19:46:16.868,1,137,161531,130125,83.0
2026-04-18T19:46:16.908,1,138,161531,130125,83.0
2026-04-18T19:46:16.947,1,139,161531,130125,83.0
2026-04-18T19:46:16.988,1,140,160944,129057,83.0
2026-04-18T19:46:17.028,1,141,160944,129057,83.0
2026-04-18T19:46:17.068,1,142,160944,129057,83.0
2026-04-18T19:46:17.107,1,143,160944,129057,83.0
2026-04-18T19:46:17.147,1,144,161600,130072,83.0
2026-04-18T19:46:17.187,1,145,161600,130072,83.0
2026-04-18T19:46:17.227,1,146,161600,130072,83.0
2026-04-18T19:46:17.267,1,147,161600,130072,83.0
2026-04-18T19:46:17.307,1,148,162061,130937,83.0
2026-04-18T19:46:17.347,1,149,162061,130937,83.0
2026-04-18T19:46:17.387,1,150,162061,130937,83.0
2026-04-18T19:46:17.428,1,151,162061,130937,83.0
2026-04-18T19:46:17.467,1,152,161628,130436,83.0
2026-04-18T19:46:17.507,1,153,161628,130436,83.0
2026-04-18T19:46:17.547,1,154,161628,130436,83.0
2026-04-18T19:46:17.587,1,155,161628,130436,83.0
2026-04-18T19:46:17.627,1,156,161582,130395,83.0
2026-04-18T19:46:17.667,1,157,161582,130395,83.0
2026-04-18T19:46:17.707,1,158,161582,130395,83.0
2026-04-18T19:46:17.747,1,159,161582,130395,83.0
2026-04-18T19:46:17.787,1,160,162470,131836,83.0
2026-04-18T19:46:17.827,1,161,162470,131836,83.0
2026-04-18T19:46:17.866,1,162,162470,131836,83.0
2026-04-18T19:46:17.907,1,163,162470,131836,83.0
2026-04-18T19:46:17.947,1,164,163672,134113,83.0
2026-04-18T19:46:17.987,1,165,163672,134113,83.0
2026-04-18T19:46:18.027,1,166,163672,134113,83.0
2026-04-18T19:46:18.066,1,167,163672,134113,83.0
2026-04-18T19:46:18.106,1,168,160659,129285,83.0
2026-04-18T19:46:18.146,1,169,160659,129285,83.0
2026-04-18T19:46:18.187,1,170,160659,129285,83.0
2026-04-18T19:46:18.226,1,171,160659,129285,83.0
2026-04-18T19:46:18.266,1,172,160144,128495,83.0
2026-04-18T19:46:18.306,1,173,160144,128495,83.0
2026-04-18T19:46:18.346,1,174,160144,128495,83.0
2026-04-18T19:46:18.386,1,175,160144,128495,83.0
2026-04-18T19:46:18.426,1,176,159607,127735,83.0
2026-04-18T19:46:18.466,1,177,159607,127735,83.0
2026-04-18T19:46:18.506,1,178,159607,127735,83.0
2026-04-18T19:46:18.546,1,179,159607,127735,83.0
2026-04-18T19:46:18.586,1,180,159193,127019,83.0
2026-04-18T19:46:18.626,1,181,159193,127019,83.0
2026-04-18T19:46:18.665,1,182,159193,127019,83.0
2026-04-18T19:46:18.706,1,183,159193,127019,83.0
2026-04-18T19:46:18.746,1,184,159541,127429,83.0
2026-04-18T19:46:18.785,1,185,159541,127429,83.0
2026-04-18T19:46:18.825,1,186,159541,127429,83.0
2026-04-18T19:46:18.865,1,187,159541,127429,83.0
2026-04-18T19:46:18.905,1,188,159776,127801,83.0
2026-04-18T19:46:18.945,1,189,159776,127801,83.0
2026-04-18T19:46:18.985,1,190,159776,127801,83.0
2026-04-18T19:46:19.025,1,191,159776,127801,83.0
2026-04-18T19:46:19.065,1,192,160149,128355,83.0
2026-04-18T19:46:19.105,1,193,160149,128355,83.0
2026-04-18T19:46:19.145,1,194,160149,128355,83.0
2026-04-18T19:46:19.185,1,195,160149,128355,83.0
2026-04-18T19:46:19.225,1,196,161736,130251,83.0
2026-04-18T19:46:19.265,1,197,161736,130251,83.0
2026-04-18T19:46:19.305,1,198,161736,130251,83.0
2026-04-18T19:46:19.345,1,199,161736,130251,83.0
2026-04-18T19:46:19.385,1,200,162063,131382,83.0
2026-04-18T19:46:19.425,1,201,162063,131382,83.0
2026-04-18T19:46:19.465,1,202,162063,131382,83.0
2026-04-18T19:46:19.505,1,203,162063,131382,83.0
2026-04-18T19:46:19.545,1,204,162342,131935,83.0
2026-04-18T19:46:19.585,1,205,162342,131935,83.0
2026-04-18T19:46:19.624,1,206,162342,131935,83.0
2026-04-18T19:46:19.665,1,207,162342,131935,83.0
2026-04-18T19:46:19.705,1,208,161890,131014,83.0
2026-04-18T19:46:19.744,1,209,161890,131014,83.0
2026-04-18T19:46:19.784,1,210,161890,131014,83.0
2026-04-18T19:46:19.824,1,211,161890,131014,83.0
2026-04-18T19:46:19.864,1,212,160028,127391,83.0
2026-04-18T19:46:19.904,1,213,160028,127391,83.0
2026-04-18T19:46:19.944,1,214,160028,127391,83.0
2026-04-18T19:46:19.984,1,215,160028,127391,83.0
2026-04-18T19:46:20.024,1,216,157699,123871,83.0
2026-04-18T19:46:20.064,1,217,157699,123871,83.0
2026-04-18T19:46:20.104,1,218,157699,123871,83.0
2026-04-18T19:46:20.144,1,219,157699,123871,83.0
2026-04-18T19:46:20.184,1,220,156514,122158,83.0
2026-04-18T19:46:20.224,1,221,156514,122158,83.0
2026-04-18T19:46:20.264,1,222,156514,122158,83.0
2026-04-18T19:46:20.304,1,223,156514,122158,83.0
2026-04-18T19:46:20.344,1,224,155778,121264,83.0
2026-04-18T19:46:20.384,1,225,155778,121264,83.0
2026-04-18T19:46:20.424,1,226,155778,121264,83.0
2026-04-18T19:46:20.464,1,227,155778,121264,83.0
2026-04-18T19:46:20.504,1,228,155508,120954,83.0
2026-04-18T19:46:20.544,1,229,155508,120954,83.0
2026-04-18T19:46:20.584,1,230,155508,120954,83.0
2026-04-18T19:46:20.624,1,231,155508,120954,83.0
2026-04-18T19:46:20.664,1,232,155330,120784,83.0
2026-04-18T19:46:20.704,1,233,155330,120784,83.0
2026-04-18T19:46:20.743,1,234,155330,120784,83.0
2026-04-18T19:46:20.783,1,235,155330,120784,83.0
2026-04-18T19:46:20.824,1,236,155256,120688,83.0
2026-04-18T19:46:20.863,1,237,155256,120688,83.0
2026-04-18T19:46:20.903,1,238,155256,120688,83.0
2026-04-18T19:46:20.943,1,239,155256,120688,83.0
2026-04-18T19:46:20.984,1,240,155219,120694,83.0
2026-04-18T19:46:21.024,1,241,155219,120694,83.0
2026-04-18T19:46:21.063,1,242,155219,120694,83.0
2026-04-18T19:46:21.103,1,243,155219,120694,83.0
2026-04-18T19:46:21.143,1,244,155243,120727,83.0
2026-04-18T19:46:21.183,1,245,155243,120727,83.0
2026-04-18T19:46:21.223,1,246,155243,120727,83.0
2026-04-18T19:46:21.263,1,247,155243,120727,83.0
2026-04-18T19:46:21.303,1,248,155243,120747,83.0
2026-04-18T19:46:21.343,1,249,155243,120747,83.0
2026-04-18T19:46:21.382,1,250,155243,120747,83.0
2026-04-18T19:46:27.975,2,0,160315,127491,75.0
2026-04-18T19:46:28.015,2,1,160171,127313,75.0
2026-04-18T19:46:28.055,2,2,160171,127313,75.0
2026-04-18T19:46:28.095,2,3,160171,127313,75.0
2026-04-18T19:46:28.136,2,4,160171,127313,75.0
2026-04-18T19:46:28.176,2,5,160135,127263,75.0
2026-04-18T19:46:28.216,2,6,160135,127263,75.0
2026-04-18T19:46:28.256,2,7,160135,127263,75.0
2026-04-18T19:46:28.295,2,8,160135,127263,75.0
2026-04-18T19:46:28.335,2,9,159867,126702,75.0
2026-04-18T19:46:28.376,2,10,159867,126702,75.0
2026-04-18T19:46:28.415,2,11,159867,126702,75.0
2026-04-18T19:46:28.455,2,12,159867,126702,75.0
2026-04-18T19:46:28.495,2,13,159509,126181,75.0
2026-04-18T19:46:28.535,2,14,159509,126181,75.0
2026-04-18T19:46:28.575,2,15,159509,126181,75.0
2026-04-18T19:46:28.615,2,16,159509,126181,75.0
2026-04-18T19:46:28.655,2,17,158962,125207,75.0
2026-04-18T19:46:28.695,2,18,158962,125207,75.0
2026-04-18T19:46:28.735,2,19,158962,125207,75.0
2026-04-18T19:46:28.775,2,20,158962,125207,75.0
2026-04-18T19:46:28.815,2,21,158119,124041,75.0
2026-04-18T19:46:28.855,2,22,158119,124041,75.0
2026-04-18T19:46:28.895,2,23,158119,124041,75.0
2026-04-18T19:46:28.935,2,24,158119,124041,75.0
2026-04-18T19:46:28.975,2,25,157664,123430,75.0
2026-04-18T19:46:29.014,2,26,157664,123430,75.0
2026-04-18T19:46:29.054,2,27,157664,123430,75.0
2026-04-18T19:46:29.094,2,28,157664,123430,75.0
2026-04-18T19:46:29.134,2,29,157423,123128,75.0
2026-04-18T19:46:29.174,2,30,157423,123128,75.0
2026-04-18T19:46:29.214,2,31,157423,123128,75.0
2026-04-18T19:46:29.254,2,32,157423,123128,75.0
2026-04-18T19:46:29.294,2,33,157330,123096,75.0
2026-04-18T19:46:29.334,2,34,157330,123096,75.0
2026-04-18T19:46:29.374,2,35,157330,123096,75.0
2026-04-18T19:46:29.414,2,36,157330,123096,75.0
2026-04-18T19:46:29.454,2,37,157281,123020,75.0
2026-04-18T19:46:29.494,2,38,157281,123020,75.0
2026-04-18T19:46:29.534,2,39,157281,123020,75.0
2026-04-18T19:46:29.574,2,40,157281,123020,75.0
2026-04-18T19:46:29.614,2,41,157190,122760,75.0
2026-04-18T19:46:29.654,2,42,157190,122760,75.0
2026-04-18T19:46:29.694,2,43,157190,122760,75.0
2026-04-18T19:46:29.734,2,44,157190,122760,75.0
2026-04-18T19:46:29.774,2,45,157212,122679,75.0
2026-04-18T19:46:29.814,2,46,157212,122679,75.0
2026-04-18T19:46:29.853,2,47,157212,122679,75.0
2026-04-18T19:46:29.894,2,48,157212,122679,75.0
2026-04-18T19:46:29.934,2,49,157268,122617,75.0
2026-04-18T19:46:29.974,2,50,157268,122617,75.0
2026-04-18T19:46:30.014,2,51,157268,122617,75.0
2026-04-18T19:46:30.054,2,52,157268,122617,75.0
2026-04-18T19:46:30.093,2,53,157299,122628,75.0
2026-04-18T19:46:30.133,2,54,157299,122628,75.0
2026-04-18T19:46:30.173,2,55,157299,122628,75.0
2026-04-18T19:46:30.213,2,56,157299,122628,75.0
2026-04-18T19:46:30.252,2,57,157247,122619,75.0
2026-04-18T19:46:30.293,2,58,157247,122619,75.0
2026-04-18T19:46:30.333,2,59,157247,122619,75.0
2026-04-18T19:46:30.373,2,60,157247,122619,75.0
2026-04-18T19:46:30.413,2,61,157164,122599,75.0
2026-04-18T19:46:30.453,2,62,157164,122599,75.0
2026-04-18T19:46:30.493,2,63,157164,122599,75.0
2026-04-18T19:46:30.533,2,64,157164,122599,75.0
2026-04-18T19:46:30.573,2,65,157092,122542,75.0
2026-04-18T19:46:30.613,2,66,157092,122542,75.0
2026-04-18T19:46:30.652,2,67,157092,122542,75.0
2026-04-18T19:46:30.692,2,68,157092,122542,75.0
2026-04-18T19:46:30.732,2,69,157084,122515,75.0
2026-04-18T19:46:30.772,2,70,157084,122515,75.0
2026-04-18T19:46:30.812,2,71,157084,122515,75.0
2026-04-18T19:46:30.852,2,72,157084,122515,75.0
2026-04-18T19:46:30.892,2,73,157151,122612,75.0
2026-04-18T19:46:30.932,2,74,157151,122612,75.0
2026-04-18T19:46:30.972,2,75,157151,122612,75.0
2026-04-18T19:46:31.012,2,76,157151,122612,75.0
2026-04-18T19:46:31.052,2,77,157145,122616,75.0
2026-04-18T19:46:31.092,2,78,157145,122616,75.0
2026-04-18T19:46:31.132,2,79,157145,122616,75.0
2026-04-18T19:46:31.172,2,80,157145,122616,75.0
2026-04-18T19:46:31.212,2,81,157160,122596,75.0
2026-04-18T19:46:31.252,2,82,157160,122596,75.0
2026-04-18T19:46:31.292,2,83,157160,122596,75.0
2026-04-18T19:46:31.332,2,84,157160,122596,75.0
2026-04-18T19:46:31.372,2,85,157191,122643,75.0
2026-04-18T19:46:31.411,2,86,157191,122643,75.0
2026-04-18T19:46:31.452,2,87,157191,122643,75.0
2026-04-18T19:46:31.492,2,88,157191,122643,75.0
2026-04-18T19:46:31.532,2,89,157215,122667,75.0
2026-04-18T19:46:31.571,2,90,157215,122667,75.0
2026-04-18T19:46:31.611,2,91,157215,122667,75.0
2026-04-18T19:46:31.651,2,92,157215,122667,75.0
2026-04-18T19:46:31.691,2,93,157230,122735,75.0
2026-04-18T19:46:31.731,2,94,157230,122735,75.0
2026-04-18T19:46:31.771,2,95,157230,122735,75.0
2026-04-18T19:46:31.811,2,96,157230,122735,75.0
2026-04-18T19:46:31.851,2,97,157245,122806,75.0
2026-04-18T19:46:31.891,2,98,157245,122806,75.0
2026-04-18T19:46:31.931,2,99,157245,122806,75.0
2026-04-18T19:46:31.971,2,100,157245,122806,75.0
2026-04-18T19:46:32.011,2,101,157272,122913,75.0
2026-04-18T19:46:32.051,2,102,157272,122913,75.0
2026-04-18T19:46:32.090,2,103,157272,122913,75.0
2026-04-18T19:46:32.131,2,104,157272,122913,75.0
2026-04-18T19:46:32.170,2,105,157373,123014,75.0
2026-04-18T19:46:32.210,2,106,157373,123014,75.0
2026-04-18T19:46:32.250,2,107,157373,123014,75.0
2026-04-18T19:46:32.290,2,108,157373,123014,75.0
2026-04-18T19:46:32.331,2,109,157495,123210,75.0
2026-04-18T19:46:32.370,2,110,157495,123210,75.0
2026-04-18T19:46:32.410,2,111,157495,123210,75.0
2026-04-18T19:46:32.450,2,112,157495,123210,75.0
2026-04-18T19:46:32.490,2,113,157732,123527,75.0
2026-04-18T19:46:32.530,2,114,157732,123527,75.0
2026-04-18T19:46:32.570,2,115,157732,123527,75.0
2026-04-18T19:46:32.610,2,116,157732,123527,75.0
2026-04-18T19:46:32.650,2,117,157910,123710,75.0
2026-04-18T19:46:32.691,2,118,157910,123710,75.0
2026-04-18T19:46:32.730,2,119,157910,123710,75.0
2026-04-18T19:46:32.770,2,120,157910,123710,75.0
2026-04-18T19:46:32.810,2,121,157965,123628,75.0
2026-04-18T19:46:32.850,2,122,157965,123628,75.0
2026-04-18T19:46:32.890,2,123,157965,123628,75.0
2026-04-18T19:46:32.930,2,124,157965,123628,75.0
2026-04-18T19:46:32.970,2,125,157988,123589,75.0
2026-04-18T19:46:33.010,2,126,157988,123589,75.0
2026-04-18T19:46:33.050,2,127,157988,123589,75.0
2026-04-18T19:46:33.090,2,128,157988,123589,75.0
2026-04-18T19:46:33.130,2,129,157968,123666,75.0
2026-04-18T19:46:33.170,2,130,157968,123666,75.0
2026-04-18T19:46:33.210,2,131,157968,123666,75.0
2026-04-18T19:46:33.249,2,132,157968,123666,75.0
2026-04-18T19:46:33.289,2,133,157945,123803,75.0
2026-04-18T19:46:33.330,2,134,157945,123803,75.0
2026-04-18T19:46:33.369,2,135,157945,123803,75.0
2026-04-18T19:46:33.409,2,136,157945,123803,75.0
2026-04-18T19:46:33.450,2,137,157966,123795,75.0
2026-04-18T19:46:33.490,2,138,157966,123795,75.0
2026-04-18T19:46:33.529,2,139,157966,123795,75.0
2026-04-18T19:46:33.570,2,140,157966,123795,75.0
2026-04-18T19:46:33.609,2,141,157976,123706,75.0
2026-04-18T19:46:33.649,2,142,157976,123706,75.0
2026-04-18T19:46:33.689,2,143,157976,123706,75.0
2026-04-18T19:46:33.729,2,144,157976,123706,75.0
2026-04-18T19:46:33.769,2,145,157943,123577,75.0
2026-04-18T19:46:33.810,2,146,157943,123577,75.0
2026-04-18T19:46:33.849,2,147,157943,123577,75.0
2026-04-18T19:46:33.889,2,148,157943,123577,75.0
2026-04-18T19:46:33.929,2,149,157986,123689,75.0
2026-04-18T19:46:33.969,2,150,157986,123689,75.0
2026-04-18T19:46:34.009,2,151,157986,123689,75.0
2026-04-18T19:46:34.049,2,152,157986,123689,75.0
2026-04-18T19:46:34.089,2,153,158028,123864,75.0
2026-04-18T19:46:34.129,2,154,158028,123864,75.0
2026-04-18T19:46:34.169,2,155,158028,123864,75.0
2026-04-18T19:46:34.208,2,156,158028,123864,75.0
2026-04-18T19:46:34.248,2,157,158034,123854,75.0
2026-04-18T19:46:34.288,2,158,158034,123854,75.0
2026-04-18T19:46:34.328,2,159,158034,123854,75.0
2026-04-18T19:46:34.369,2,160,158034,123854,75.0
2026-04-18T19:46:34.408,2,161,158041,123783,75.0
2026-04-18T19:46:34.448,2,162,158041,123783,75.0
2026-04-18T19:46:34.488,2,163,158041,123783,75.0
2026-04-18T19:46:34.528,2,164,158041,123783,75.0
2026-04-18T19:46:34.568,2,165,158069,123790,75.0
2026-04-18T19:46:34.608,2,166,158069,123790,75.0
2026-04-18T19:46:34.647,2,167,158069,123790,75.0
2026-04-18T19:46:34.688,2,168,158069,123790,75.0
2026-04-18T19:46:34.728,2,169,158032,123800,75.0
2026-04-18T19:46:34.768,2,170,158032,123800,75.0
2026-04-18T19:46:34.808,2,171,158032,123800,75.0
2026-04-18T19:46:34.848,2,172,158032,123800,75.0
2026-04-18T19:46:34.888,2,173,158032,123767,75.0
2026-04-18T19:46:34.928,2,174,158032,123767,75.0
2026-04-18T19:46:34.968,2,175,158032,123767,75.0
2026-04-18T19:46:35.008,2,176,158032,123767,75.0
2026-04-18T19:46:35.048,2,177,157994,123641,75.0
2026-04-18T19:46:35.087,2,178,157994,123641,75.0
2026-04-18T19:46:35.128,2,179,157994,123641,75.0
2026-04-18T19:46:35.168,2,180,157994,123641,75.0
2026-04-18T19:46:35.208,2,181,157985,123593,75.0
2026-04-18T19:46:35.248,2,182,157985,123593,75.0
2026-04-18T19:46:35.288,2,183,157985,123593,75.0
2026-04-18T19:46:35.327,2,184,157985,123593,75.0
2026-04-18T19:46:35.367,2,185,157990,123662,75.0
2026-04-18T19:46:35.407,2,186,157990,123662,75.0
2026-04-18T19:46:35.447,2,187,157990,123662,75.0
2026-04-18T19:46:35.487,2,188,157990,123662,75.0
2026-04-18T19:46:35.527,2,189,157972,123703,75.0
2026-04-18T19:46:35.567,2,190,157972,123703,75.0
2026-04-18T19:46:35.607,2,191,157972,123703,75.0
2026-04-18T19:46:35.647,2,192,157972,123703,75.0
2026-04-18T19:46:35.687,2,193,157959,123650,75.0
2026-04-18T19:46:35.728,2,194,157959,123650,75.0
2026-04-18T19:46:35.767,2,195,157959,123650,75.0
2026-04-18T19:46:35.807,2,196,157959,123650,75.0
2026-04-18T19:46:35.847,2,197,157900,123460,75.0
2026-04-18T19:46:35.887,2,198,157900,123460,75.0
2026-04-18T19:46:35.927,2,199,157900,123460,75.0
2026-04-18T19:46:35.966,2,200,157900,123460,75.0
2026-04-18T19:46:36.007,2,201,157822,123222,75.0
2026-04-18T19:46:36.047,2,202,157822,123222,75.0
2026-04-18T19:46:36.086,2,203,157822,123222,75.0
2026-04-18T19:46:36.126,2,204,157822,123222,75.0
2026-04-18T19:46:36.167,2,205,157728,123110,75.0
2026-04-18T19:46:36.207,2,206,157728,123110,75.0
2026-04-18T19:46:36.247,2,207,157728,123110,75.0
2026-04-18T19:46:36.286,2,208,157728,123110,75.0
2026-04-18T19:46:36.326,2,209,157643,123003,75.0
2026-04-18T19:46:36.366,2,210,157643,123003,75.0
2026-04-18T19:46:36.406,2,211,157643,123003,75.0
2026-04-18T19:46:36.446,2,212,157643,123003,75.0
2026-04-18T19:46:36.486,2,213,157602,122928,75.0
2026-04-18T19:46:36.526,2,214,157602,122928,75.0
2026-04-18T19:46:36.566,2,215,157602,122928,75.0
2026-04-18T19:46:36.606,2,216,157602,122928,75.0
2026-04-18T19:46:36.646,2,217,157599,122904,75.0
2026-04-18T19:46:36.686,2,218,157599,122904,75.0
2026-04-18T19:46:36.726,2,219,157599,122904,75.0
2026-04-18T19:46:36.766,2,220,157599,122904,75.0
2026-04-18T19:46:36.805,2,221,157595,122914,75.0
2026-04-18T19:46:36.845,2,222,157595,122914,75.0
2026-04-18T19:46:36.885,2,223,157595,122914,75.0
2026-04-18T19:46:36.926,2,224,157595,122914,75.0
2026-04-18T19:46:36.965,2,225,157589,123028,75.0
2026-04-18T19:46:37.005,2,226,157589,123028,75.0
2026-04-18T19:46:37.046,2,227,157589,123028,75.0
2026-04-18T19:46:37.085,2,228,157589,123028,75.0
2026-04-18T19:46:37.125,2,229,157598,123053,75.0
2026-04-18T19:46:37.165,2,230,157598,123053,75.0
2026-04-18T19:46:37.205,2,231,157598,123053,75.0
2026-04-18T19:46:37.245,2,232,157598,123053,75.0
2026-04-18T19:46:37.285,2,233,157603,123046,75.0
2026-04-18T19:46:37.325,2,234,157603,123046,75.0
2026-04-18T19:46:37.365,2,235,157603,123046,75.0
2026-04-18T19:46:37.405,2,236,157603,123046,75.0
2026-04-18T19:46:37.444,2,237,157619,123039,75.0
2026-04-18T19:46:37.485,2,238,157619,123039,75.0
2026-04-18T19:46:37.525,2,239,157619,123039,75.0
2026-04-18T19:46:37.565,2,240,157619,123039,75.0
2026-04-18T19:46:37.605,2,241,157652,123120,75.0
2026-04-18T19:46:37.645,2,242,157652,123120,75.0
2026-04-18T19:46:37.685,2,243,157652,123120,75.0
2026-04-18T19:46:37.724,2,244,157652,123120,75.0
2026-04-18T19:46:37.764,2,245,157665,123257,75.0
2026-04-18T19:46:37.805,2,246,157665,123257,75.0
2026-04-18T19:46:37.845,2,247,157665,123257,75.0
2026-04-18T19:46:37.884,2,248,157665,123257,75.0
2026-04-18T19:46:37.925,2,249,157684,123327,75.0
2026-04-18T19:46:37.964,2,250,157684,123327,75.0
2026-04-18T19:46:38.004,2,251,157684,123327,75.0
2026-04-18T19:46:41.161,3,0,161834,130959,79.0
2026-04-18T19:46:41.201,3,1,161834,130959,79.0
2026-04-18T19:46:41.240,3,2,161834,130959,79.0
2026-04-18T19:46:41.280,3,3,160791,128988,79.0
2026-04-18T19:46:41.320,3,4,160791,128988,79.0
2026-04-18T19:46:41.361,3,5,160791,128988,79.0
2026-04-18T19:46:41.401,3,6,160791,128988,79.0
2026-04-18T19:46:41.440,3,7,159626,126775,79.0
2026-04-18T19:46:41.480,3,8,159626,126775,79.0
2026-04-18T19:46:41.521,3,9,159626,126775,79.0
2026-04-18T19:46:41.561,3,10,159626,126775,79.0
2026-04-18T19:46:41.600,3,11,158794,125192,79.0
2026-04-18T19:46:41.640,3,12,158794,125192,79.0
2026-04-18T19:46:41.680,3,13,158794,125192,79.0
2026-04-18T19:46:41.720,3,14,158794,125192,79.0
2026-04-18T19:46:41.760,3,15,157583,123577,79.0
2026-04-18T19:46:41.800,3,16,157583,123577,79.0
2026-04-18T19:46:41.840,3,17,157583,123577,79.0
2026-04-18T19:46:41.880,3,18,157583,123577,79.0
2026-04-18T19:46:41.920,3,19,157010,122622,79.0
2026-04-18T19:46:41.960,3,20,157010,122622,79.0
2026-04-18T19:46:41.999,3,21,157010,122622,79.0
2026-04-18T19:46:42.040,3,22,157010,122622,79.0
2026-04-18T19:46:42.079,3,23,156970,122478,79.0
2026-04-18T19:46:42.120,3,24,156970,122478,79.0
2026-04-18T19:46:42.159,3,25,156970,122478,79.0
2026-04-18T19:46:42.200,3,26,156970,122478,79.0
2026-04-18T19:46:42.240,3,27,156945,122432,79.0
2026-04-18T19:46:42.279,3,28,156945,122432,79.0
2026-04-18T19:46:42.320,3,29,156945,122432,79.0
2026-04-18T19:46:42.359,3,30,156945,122432,79.0
2026-04-18T19:46:42.400,3,31,156924,122375,79.0
2026-04-18T19:46:42.439,3,32,156924,122375,79.0
2026-04-18T19:46:42.479,3,33,156924,122375,79.0
2026-04-18T19:46:42.519,3,34,156924,122375,79.0
2026-04-18T19:46:42.560,3,35,156913,122329,79.0
2026-04-18T19:46:42.599,3,36,156913,122329,79.0
2026-04-18T19:46:42.639,3,37,156913,122329,79.0
2026-04-18T19:46:42.679,3,38,156913,122329,79.0
2026-04-18T19:46:42.719,3,39,156909,122332,79.0
2026-04-18T19:46:42.758,3,40,156909,122332,79.0
2026-04-18T19:46:42.799,3,41,156909,122332,79.0
2026-04-18T19:46:42.839,3,42,156909,122332,79.0
2026-04-18T19:46:42.879,3,43,156861,122234,79.0
2026-04-18T19:46:42.919,3,44,156861,122234,79.0
2026-04-18T19:46:42.959,3,45,156861,122234,79.0
2026-04-18T19:46:42.999,3,46,156861,122234,79.0
2026-04-18T19:46:43.039,3,47,156792,122076,79.0
2026-04-18T19:46:43.079,3,48,156792,122076,79.0
2026-04-18T19:46:43.118,3,49,156792,122076,79.0
2026-04-18T19:46:43.158,3,50,156792,122076,79.0
2026-04-18T19:46:43.199,3,51,156796,122044,79.0
2026-04-18T19:46:43.239,3,52,156796,122044,79.0
2026-04-18T19:46:43.278,3,53,156796,122044,79.0
2026-04-18T19:46:43.319,3,54,156796,122044,79.0
2026-04-18T19:46:43.358,3,55,156833,122183,79.0
2026-04-18T19:46:43.399,3,56,156833,122183,79.0
2026-04-18T19:46:43.438,3,57,156833,122183,79.0
2026-04-18T19:46:43.478,3,58,156833,122183,79.0
2026-04-18T19:46:43.518,3,59,156823,122222,79.0
2026-04-18T19:46:43.558,3,60,156823,122222,79.0
2026-04-18T19:46:43.598,3,61,156823,122222,79.0
2026-04-18T19:46:43.638,3,62,156823,122222,79.0
2026-04-18T19:46:43.678,3,63,156788,122204,79.0
2026-04-18T19:46:43.718,3,64,156788,122204,79.0
2026-04-18T19:46:43.758,3,65,156788,122204,79.0
2026-04-18T19:46:43.798,3,66,156788,122204,79.0
2026-04-18T19:46:43.838,3,67,156787,122239,79.0
2026-04-18T19:46:43.878,3,68,156787,122239,79.0
2026-04-18T19:46:43.918,3,69,156787,122239,79.0
2026-04-18T19:46:43.958,3,70,156787,122239,79.0
2026-04-18T19:46:43.998,3,71,156821,122279,79.0
2026-04-18T19:46:44.037,3,72,156821,122279,79.0
2026-04-18T19:46:44.077,3,73,156821,122279,79.0
2026-04-18T19:46:44.118,3,74,156821,122279,79.0
2026-04-18T19:46:44.158,3,75,156858,122391,79.0
2026-04-18T19:46:44.197,3,76,156858,122391,79.0
2026-04-18T19:46:44.237,3,77,156858,122391,79.0
2026-04-18T19:46:44.277,3,78,156858,122391,79.0
2026-04-18T19:46:44.317,3,79,156937,122558,79.0
2026-04-18T19:46:44.357,3,80,156937,122558,79.0
2026-04-18T19:46:44.397,3,81,156937,122558,79.0
2026-04-18T19:46:44.437,3,82,156937,122558,79.0
2026-04-18T19:46:44.477,3,83,157013,122657,79.0
2026-04-18T19:46:44.516,3,84,157013,122657,79.0
2026-04-18T19:46:44.557,3,85,157013,122657,79.0
2026-04-18T19:46:44.597,3,86,157013,122657,79.0
2026-04-18T19:46:44.637,3,87,157038,122682,79.0
2026-04-18T19:46:44.677,3,88,157038,122682,79.0
2026-04-18T19:46:44.716,3,89,157038,122682,79.0
2026-04-18T19:46:44.757,3,90,157038,122682,79.0
2026-04-18T19:46:44.797,3,91,157106,122733,79.0
2026-04-18T19:46:44.837,3,92,157106,122733,79.0
2026-04-18T19:46:44.877,3,93,157106,122733,79.0
2026-04-18T19:46:44.916,3,94,157106,122733,79.0
2026-04-18T19:46:44.957,3,95,157132,122804,79.0
2026-04-18T19:46:44.997,3,96,157132,122804,79.0
2026-04-18T19:46:45.037,3,97,157132,122804,79.0
2026-04-18T19:46:45.076,3,98,157132,122804,79.0
2026-04-18T19:46:45.116,3,99,157148,122808,79.0
2026-04-18T19:46:45.156,3,100,157148,122808,79.0
2026-04-18T19:46:45.196,3,101,157148,122808,79.0
2026-04-18T19:46:45.236,3,102,157148,122808,79.0
2026-04-18T19:46:45.276,3,103,157124,122634,79.0
2026-04-18T19:46:45.316,3,104,157124,122634,79.0
2026-04-18T19:46:45.356,3,105,157124,122634,79.0
2026-04-18T19:46:45.396,3,106,157124,122634,79.0
2026-04-18T19:46:45.436,3,107,157109,122492,79.0
2026-04-18T19:46:45.476,3,108,157109,122492,79.0
2026-04-18T19:46:45.516,3,109,157109,122492,79.0
2026-04-18T19:46:45.556,3,110,157109,122492,79.0
2026-04-18T19:46:45.596,3,111,157115,122408,79.0
2026-04-18T19:46:45.636,3,112,157115,122408,79.0
2026-04-18T19:46:45.675,3,113,157115,122408,79.0
2026-04-18T19:46:45.715,3,114,157115,122408,79.0
2026-04-18T19:46:45.755,3,115,157127,122409,79.0
2026-04-18T19:46:45.796,3,116,157127,122409,79.0
2026-04-18T19:46:45.836,3,117,157127,122409,79.0
2026-04-18T19:46:45.876,3,118,157127,122409,79.0
2026-04-18T19:46:45.915,3,119,157108,122413,79.0
2026-04-18T19:46:45.956,3,120,157108,122413,79.0
2026-04-18T19:46:45.995,3,121,157108,122413,79.0
2026-04-18T19:46:46.035,3,122,157108,122413,79.0
2026-04-18T19:46:46.076,3,123,157081,122379,79.0
2026-04-18T19:46:46.115,3,124,157081,122379,79.0
2026-04-18T19:46:46.155,3,125,157081,122379,79.0
2026-04-18T19:46:46.195,3,126,157081,122379,79.0
2026-04-18T19:46:46.235,3,127,157071,122376,79.0
2026-04-18T19:46:46.275,3,128,157071,122376,79.0
2026-04-18T19:46:46.315,3,129,157071,122376,79.0
2026-04-18T19:46:46.355,3,130,157071,122376,79.0
2026-04-18T19:46:46.395,3,131,157103,122416,79.0
2026-04-18T19:46:46.435,3,132,157103,122416,79.0
2026-04-18T19:46:46.475,3,133,157103,122416,79.0
2026-04-18T19:46:46.515,3,134,157103,122416,79.0
2026-04-18T19:46:46.555,3,135,157141,122525,79.0
2026-04-18T19:46:46.594,3,136,157141,122525,79.0
2026-04-18T19:46:46.634,3,137,157141,122525,79.0
2026-04-18T19:46:46.674,3,138,157141,122525,79.0
2026-04-18T19:46:46.715,3,139,157186,122622,79.0
2026-04-18T19:46:46.755,3,140,157186,122622,79.0
2026-04-18T19:46:46.794,3,141,157186,122622,79.0
2026-04-18T19:46:46.834,3,142,157186,122622,79.0
2026-04-18T19:46:46.875,3,143,157227,122632,79.0
2026-04-18T19:46:46.914,3,144,157227,122632,79.0
2026-04-18T19:46:46.954,3,145,157227,122632,79.0
2026-04-18T19:46:46.994,3,146,157227,122632,79.0
2026-04-18T19:46:47.034,3,147,157263,122622,79.0
2026-04-18T19:46:47.074,3,148,157263,122622,79.0
2026-04-18T19:46:47.114,3,149,157263,122622,79.0
2026-04-18T19:46:47.154,3,150,157263,122622,79.0
2026-04-18T19:46:47.194,3,151,157327,122671,79.0
2026-04-18T19:46:47.234,3,152,157327,122671,79.0
2026-04-18T19:46:47.274,3,153,157327,122671,79.0
2026-04-18T19:46:47.314,3,154,157327,122671,79.0
2026-04-18T19:46:47.354,3,155,157353,122728,79.0
2026-04-18T19:46:47.394,3,156,157353,122728,79.0
2026-04-18T19:46:47.434,3,157,157353,122728,79.0
2026-04-18T19:46:47.474,3,158,157353,122728,79.0
2026-04-18T19:46:47.514,3,159,157376,122804,79.0
2026-04-18T19:46:47.554,3,160,157376,122804,79.0
2026-04-18T19:46:47.594,3,161,157376,122804,79.0
2026-04-18T19:46:47.634,3,162,157376,122804,79.0
2026-04-18T19:46:47.673,3,163,157383,122755,79.0
2026-04-18T19:46:47.713,3,164,157383,122755,79.0
2026-04-18T19:46:47.754,3,165,157383,122755,79.0
2026-04-18T19:46:47.793,3,166,157383,122755,79.0
2026-04-18T19:46:47.833,3,167,157378,122642,79.0
2026-04-18T19:46:47.873,3,168,157378,122642,79.0
2026-04-18T19:46:47.913,3,169,157378,122642,79.0
2026-04-18T19:46:47.953,3,170,157378,122642,79.0
2026-04-18T19:46:47.994,3,171,157364,122543,79.0
2026-04-18T19:46:48.033,3,172,157364,122543,79.0
2026-04-18T19:46:48.073,3,173,157364,122543,79.0
2026-04-18T19:46:48.113,3,174,157364,122543,79.0
2026-04-18T19:46:48.153,3,175,157354,122502,79.0
2026-04-18T19:46:48.193,3,176,157354,122502,79.0
2026-04-18T19:46:48.233,3,177,157354,122502,79.0
2026-04-18T19:46:48.273,3,178,157354,122502,79.0
2026-04-18T19:46:48.313,3,179,157323,122477,79.0
2026-04-18T19:46:48.353,3,180,157323,122477,79.0
2026-04-18T19:46:48.393,3,181,157323,122477,79.0
2026-04-18T19:46:48.432,3,182,157323,122477,79.0
2026-04-18T19:46:48.472,3,183,157297,122437,79.0
2026-04-18T19:46:48.513,3,184,157297,122437,79.0
2026-04-18T19:46:48.552,3,185,157297,122437,79.0
2026-04-18T19:46:48.593,3,186,157297,122437,79.0
2026-04-18T19:46:48.632,3,187,157286,122441,79.0
2026-04-18T19:46:48.672,3,188,157286,122441,79.0
2026-04-18T19:46:48.712,3,189,157286,122441,79.0
2026-04-18T19:46:48.752,3,190,157286,122441,79.0
2026-04-18T19:46:48.792,3,191,157294,122479,79.0
2026-04-18T19:46:48.832,3,192,157294,122479,79.0
2026-04-18T19:46:48.872,3,193,157294,122479,79.0
2026-04-18T19:46:48.912,3,194,157294,122479,79.0
2026-04-18T19:46:48.952,3,195,157307,122571,79.0
2026-04-18T19:46:48.992,3,196,157307,122571,79.0
2026-04-18T19:46:49.032,3,197,157307,122571,79.0
2026-04-18T19:46:49.072,3,198,157307,122571,79.0
2026-04-18T19:46:49.112,3,199,157320,122650,79.0
2026-04-18T19:46:49.152,3,200,157320,122650,79.0
2026-04-18T19:46:49.192,3,201,157320,122650,79.0
2026-04-18T19:46:49.232,3,202,157320,122650,79.0
2026-04-18T19:46:49.271,3,203,157304,122658,79.0
2026-04-18T19:46:49.312,3,204,157304,122658,79.0
2026-04-18T19:46:49.352,3,205,157304,122658,79.0
2026-04-18T19:46:49.392,3,206,157304,122658,79.0
2026-04-18T19:46:49.432,3,207,157302,122655,79.0
2026-04-18T19:46:49.471,3,208,157302,122655,79.0
2026-04-18T19:46:49.511,3,209,157302,122655,79.0
2026-04-18T19:46:49.551,3,210,157302,122655,79.0
2026-04-18T19:46:49.591,3,211,157336,122652,79.0
2026-04-18T19:46:49.631,3,212,157336,122652,79.0
2026-04-18T19:46:49.671,3,213,157336,122652,79.0
2026-04-18T19:46:49.711,3,214,157336,122652,79.0
2026-04-18T19:46:49.751,3,215,157334,122696,79.0
2026-04-18T19:46:49.791,3,216,157334,122696,79.0
2026-04-18T19:46:49.831,3,217,157334,122696,79.0
2026-04-18T19:46:49.871,3,218,157334,122696,79.0
2026-04-18T19:46:49.911,3,219,157323,122718,79.0
2026-04-18T19:46:49.951,3,220,157323,122718,79.0
2026-04-18T19:46:49.991,3,221,157323,122718,79.0
2026-04-18T19:46:50.031,3,222,157323,122718,79.0
2026-04-18T19:46:50.071,3,223,157311,122709,79.0
2026-04-18T19:46:50.110,3,224,157311,122709,79.0
2026-04-18T19:46:50.150,3,225,157311,122709,79.0
2026-04-18T19:46:50.190,3,226,157311,122709,79.0
2026-04-18T19:46:50.231,3,227,157289,122668,79.0
2026-04-18T19:46:50.270,3,228,157289,122668,79.0
2026-04-18T19:46:50.311,3,229,157289,122668,79.0
2026-04-18T19:46:50.350,3,230,157289,122668,79.0
2026-04-18T19:46:50.390,3,231,157283,122617,79.0
2026-04-18T19:46:50.431,3,232,157283,122617,79.0
2026-04-18T19:46:50.470,3,233,157283,122617,79.0
2026-04-18T19:46:50.510,3,234,157283,122617,79.0
2026-04-18T19:46:50.550,3,235,157295,122585,79.0
2026-04-18T19:46:50.590,3,236,157295,122585,79.0
2026-04-18T19:46:50.630,3,237,157295,122585,79.0
2026-04-18T19:46:50.670,3,238,157295,122585,79.0
2026-04-18T19:46:50.710,3,239,157253,122531,79.0
2026-04-18T19:46:50.750,3,240,157253,122531,79.0
2026-04-18T19:46:50.790,3,241,157253,122531,79.0
2026-04-18T19:46:50.830,3,242,157253,122531,79.0
2026-04-18T19:46:50.870,3,243,157185,122449,79.0
2026-04-18T19:46:50.910,3,244,157185,122449,79.0
2026-04-18T19:46:50.950,3,245,157185,122449,79.0
2026-04-18T19:46:50.989,3,246,157185,122449,79.0
2026-04-18T19:46:51.030,3,247,157139,122358,79.0
2026-04-18T19:46:51.070,3,248,157139,122358,79.0
2026-04-18T19:46:51.110,3,249,157139,122358,79.0
2026-04-18T19:46:51.150,3,250,157139,122358,79.0
2026-04-18T19:46:54.625,4,0,159042,126838,80.0
2026-04-18T19:46:54.665,4,1,159042,126838,80.0
2026-04-18T19:46:54.706,4,2,158957,126754,80.0
2026-04-18T19:46:54.746,4,3,158957,126754,80.0
2026-04-18T19:46:54.785,4,4,158957,126754,80.0
2026-04-18T19:46:54.825,4,5,158957,126754,80.0
2026-04-18T19:46:54.865,4,6,159067,126568,80.0
2026-04-18T19:46:54.905,4,7,159067,126568,80.0
2026-04-18T19:46:54.945,4,8,159067,126568,80.0
2026-04-18T19:46:54.985,4,9,159067,126568,80.0
2026-04-18T19:46:55.025,4,10,159136,126112,80.0
2026-04-18T19:46:55.065,4,11,159136,126112,80.0
2026-04-18T19:46:55.105,4,12,159136,126112,80.0
2026-04-18T19:46:55.145,4,13,159136,126112,80.0
2026-04-18T19:46:55.185,4,14,158525,124433,80.0
2026-04-18T19:46:55.225,4,15,158525,124433,80.0
2026-04-18T19:46:55.265,4,16,158525,124433,80.0
2026-04-18T19:46:55.305,4,17,158525,124433,80.0
2026-04-18T19:46:55.345,4,18,158194,123597,80.0
2026-04-18T19:46:55.385,4,19,158194,123597,80.0
2026-04-18T19:46:55.425,4,20,158194,123597,80.0
2026-04-18T19:46:55.464,4,21,158194,123597,80.0
2026-04-18T19:46:55.505,4,22,157927,123087,80.0
2026-04-18T19:46:55.545,4,23,157927,123087,80.0
2026-04-18T19:46:55.585,4,24,157927,123087,80.0
2026-04-18T19:46:55.624,4,25,157927,123087,80.0
2026-04-18T19:46:55.664,4,26,157903,123010,80.0
2026-04-18T19:46:55.704,4,27,157903,123010,80.0
2026-04-18T19:46:55.744,4,28,157903,123010,80.0
2026-04-18T19:46:55.784,4,29,157903,123010,80.0
2026-04-18T19:46:55.824,4,30,157824,122984,80.0
2026-04-18T19:46:55.864,4,31,157824,122984,80.0
2026-04-18T19:46:55.904,4,32,157824,122984,80.0
2026-04-18T19:46:55.944,4,33,157824,122984,80.0
2026-04-18T19:46:55.984,4,34,157752,122993,80.0
2026-04-18T19:46:56.024,4,35,157752,122993,80.0
2026-04-18T19:46:56.064,4,36,157752,122993,80.0
2026-04-18T19:46:56.104,4,37,157752,122993,80.0
2026-04-18T19:46:56.144,4,38,157643,122917,80.0
2026-04-18T19:46:56.184,4,39,157643,122917,80.0
2026-04-18T19:46:56.223,4,40,157643,122917,80.0
2026-04-18T19:46:56.263,4,41,157643,122917,80.0
2026-04-18T19:46:56.304,4,42,157602,122839,80.0
2026-04-18T19:46:56.344,4,43,157602,122839,80.0
2026-04-18T19:46:56.384,4,44,157602,122839,80.0
2026-04-18T19:46:56.423,4,45,157602,122839,80.0
2026-04-18T19:46:56.464,4,46,157633,122807,80.0
2026-04-18T19:46:56.503,4,47,157633,122807,80.0
2026-04-18T19:46:56.543,4,48,157633,122807,80.0
2026-04-18T19:46:56.583,4,49,157633,122807,80.0
2026-04-18T19:46:56.624,4,50,157646,122846,80.0
2026-04-18T19:46:56.663,4,51,157646,122846,80.0
2026-04-18T19:46:56.703,4,52,157646,122846,80.0
2026-04-18T19:46:56.743,4,53,157646,122846,80.0
2026-04-18T19:46:56.782,4,54,157620,122861,80.0
2026-04-18T19:46:56.823,4,55,157620,122861,80.0
2026-04-18T19:46:56.863,4,56,157620,122861,80.0
2026-04-18T19:46:56.903,4,57,157620,122861,80.0
2026-04-18T19:46:56.942,4,58,157648,122935,80.0
2026-04-18T19:46:56.983,4,59,157648,122935,80.0
2026-04-18T19:46:57.023,4,60,157648,122935,80.0
2026-04-18T19:46:57.063,4,61,157648,122935,80.0
2026-04-18T19:46:57.103,4,62,157692,123001,80.0
2026-04-18T19:46:57.143,4,63,157692,123001,80.0
2026-04-18T19:46:57.182,4,64,157692,123001,80.0
2026-04-18T19:46:57.222,4,65,157692,123001,80.0
2026-04-18T19:46:57.262,4,66,157727,123015,80.0
2026-04-18T19:46:57.302,4,67,157727,123015,80.0
2026-04-18T19:46:57.342,4,68,157727,123015,80.0
2026-04-18T19:46:57.382,4,69,157727,123015,80.0
2026-04-18T19:46:57.422,4,70,157789,123106,80.0
2026-04-18T19:46:57.463,4,71,157789,123106,80.0
2026-04-18T19:46:57.503,4,72,157789,123106,80.0
2026-04-18T19:46:57.542,4,73,157789,123106,80.0
2026-04-18T19:46:57.582,4,74,157818,123167,80.0
2026-04-18T19:46:57.622,4,75,157818,123167,80.0
2026-04-18T19:46:57.662,4,76,157818,123167,80.0
2026-04-18T19:46:57.702,4,77,157818,123167,80.0
2026-04-18T19:46:57.742,4,78,157829,123189,80.0
2026-04-18T19:46:57.782,4,79,157829,123189,80.0
2026-04-18T19:46:57.822,4,80,157829,123189,80.0
2026-04-18T19:46:57.862,4,81,157829,123189,80.0
2026-04-18T19:46:57.902,4,82,157848,123172,80.0
2026-04-18T19:46:57.942,4,83,157848,123172,80.0
2026-04-18T19:46:57.982,4,84,157848,123172,80.0
2026-04-18T19:46:58.021,4,85,157848,123172,80.0
2026-04-18T19:46:58.061,4,86,157860,123161,80.0
2026-04-18T19:46:58.101,4,87,157860,123161,80.0
2026-04-18T19:46:58.142,4,88,157860,123161,80.0
2026-04-18T19:46:58.181,4,89,157860,123161,80.0
2026-04-18T19:46:58.222,4,90,157887,123209,80.0
2026-04-18T19:46:58.261,4,91,157887,123209,80.0
2026-04-18T19:46:58.301,4,92,157887,123209,80.0
2026-04-18T19:46:58.341,4,93,157887,123209,80.0
2026-04-18T19:46:58.381,4,94,157889,123246,80.0
2026-04-18T19:46:58.422,4,95,157889,123246,80.0
2026-04-18T19:46:58.461,4,96,157889,123246,80.0
2026-04-18T19:46:58.501,4,97,157889,123246,80.0
2026-04-18T19:46:58.541,4,98,157895,123252,80.0
2026-04-18T19:46:58.581,4,99,157895,123252,80.0
2026-04-18T19:46:58.621,4,100,157895,123252,80.0
2026-04-18T19:46:58.661,4,101,157895,123252,80.0
2026-04-18T19:46:58.701,4,102,157887,123217,80.0
2026-04-18T19:46:58.741,4,103,157887,123217,80.0
2026-04-18T19:46:58.780,4,104,157887,123217,80.0
2026-04-18T19:46:58.821,4,105,157887,123217,80.0
2026-04-18T19:46:58.861,4,106,157890,123183,80.0
2026-04-18T19:46:58.900,4,107,157890,123183,80.0
2026-04-18T19:46:58.940,4,108,157890,123183,80.0
2026-04-18T19:46:58.980,4,109,157890,123183,80.0
2026-04-18T19:46:59.020,4,110,157910,123132,80.0
2026-04-18T19:46:59.060,4,111,157910,123132,80.0
2026-04-18T19:46:59.100,4,112,157910,123132,80.0
2026-04-18T19:46:59.140,4,113,157910,123132,80.0
2026-04-18T19:46:59.180,4,114,157905,123124,80.0
2026-04-18T19:46:59.221,4,115,157905,123124,80.0
2026-04-18T19:46:59.260,4,116,157905,123124,80.0
2026-04-18T19:46:59.300,4,117,157905,123124,80.0
2026-04-18T19:46:59.340,4,118,157861,123065,80.0
2026-04-18T19:46:59.380,4,119,157861,123065,80.0
2026-04-18T19:46:59.420,4,120,157861,123065,80.0
2026-04-18T19:46:59.460,4,121,157861,123065,80.0
2026-04-18T19:46:59.500,4,122,157812,122955,80.0
2026-04-18T19:46:59.540,4,123,157812,122955,80.0
2026-04-18T19:46:59.580,4,124,157812,122955,80.0
2026-04-18T19:46:59.620,4,125,157812,122955,80.0
2026-04-18T19:46:59.660,4,126,157784,122881,80.0
2026-04-18T19:46:59.700,4,127,157784,122881,80.0
2026-04-18T19:46:59.740,4,128,157784,122881,80.0
2026-04-18T19:46:59.780,4,129,157784,122881,80.0
2026-04-18T19:46:59.820,4,130,157797,122842,80.0
2026-04-18T19:46:59.860,4,131,157797,122842,80.0
2026-04-18T19:46:59.899,4,132,157797,122842,80.0
2026-04-18T19:46:59.940,4,133,157797,122842,80.0
2026-04-18T19:46:59.980,4,134,157824,122903,80.0
2026-04-18T19:47:00.019,4,135,157824,122903,80.0
2026-04-18T19:47:00.059,4,136,157824,122903,80.0
2026-04-18T19:47:00.099,4,137,157824,122903,80.0
2026-04-18T19:47:00.139,4,138,157812,122945,80.0
2026-04-18T19:47:00.179,4,139,157812,122945,80.0
2026-04-18T19:47:00.220,4,140,157812,122945,80.0
2026-04-18T19:47:00.259,4,141,157812,122945,80.0
2026-04-18T19:47:00.298,4,142,157815,122986,80.0
2026-04-18T19:47:00.338,4,143,157815,122986,80.0
2026-04-18T19:47:00.378,4,144,157815,122986,80.0
2026-04-18T19:47:00.419,4,145,157815,122986,80.0
2026-04-18T19:47:00.459,4,146,157821,123007,80.0
2026-04-18T19:47:00.499,4,147,157821,123007,80.0
2026-04-18T19:47:00.539,4,148,157821,123007,80.0
2026-04-18T19:47:00.578,4,149,157821,123007,80.0
2026-04-18T19:47:00.619,4,150,157835,123016,80.0
2026-04-18T19:47:00.659,4,151,157835,123016,80.0
2026-04-18T19:47:00.699,4,152,157835,123016,80.0
2026-04-18T19:47:00.739,4,153,157835,123016,80.0
2026-04-18T19:47:00.778,4,154,157880,123082,80.0
2026-04-18T19:47:00.819,4,155,157880,123082,80.0
2026-04-18T19:47:00.859,4,156,157880,123082,80.0
2026-04-18T19:47:00.899,4,157,157880,123082,80.0
2026-04-18T19:47:00.938,4,158,157857,123126,80.0
2026-04-18T19:47:00.978,4,159,157857,123126,80.0
2026-04-18T19:47:01.018,4,160,157857,123126,80.0
2026-04-18T19:47:01.058,4,161,157857,123126,80.0
2026-04-18T19:47:01.098,4,162,157833,123123,80.0
2026-04-18T19:47:01.138,4,163,157833,123123,80.0
2026-04-18T19:47:01.177,4,164,157833,123123,80.0
2026-04-18T19:47:01.218,4,165,157833,123123,80.0
2026-04-18T19:47:01.258,4,166,157823,123088,80.0
2026-04-18T19:47:01.298,4,167,157823,123088,80.0
2026-04-18T19:47:01.338,4,168,157823,123088,80.0
2026-04-18T19:47:01.378,4,169,157823,123088,80.0
2026-04-18T19:47:01.418,4,170,157821,123076,80.0
2026-04-18T19:47:01.458,4,171,157821,123076,80.0
2026-04-18T19:47:01.498,4,172,157821,123076,80.0
2026-04-18T19:47:01.538,4,173,157821,123076,80.0
2026-04-18T19:47:01.578,4,174,157835,123070,80.0
2026-04-18T19:47:01.618,4,175,157835,123070,80.0
2026-04-18T19:47:01.658,4,176,157835,123070,80.0
2026-04-18T19:47:01.698,4,177,157835,123070,80.0
2026-04-18T19:47:01.738,4,178,157830,123094,80.0
2026-04-18T19:47:01.778,4,179,157830,123094,80.0
2026-04-18T19:47:01.818,4,180,157830,123094,80.0
2026-04-18T19:47:01.857,4,181,157830,123094,80.0
2026-04-18T19:47:01.897,4,182,157789,123054,80.0
2026-04-18T19:47:01.937,4,183,157789,123054,80.0
2026-04-18T19:47:01.977,4,184,157789,123054,80.0
2026-04-18T19:47:02.017,4,185,157789,123054,80.0
2026-04-18T19:47:02.058,4,186,157754,122957,80.0
2026-04-18T19:47:02.097,4,187,157754,122957,80.0
2026-04-18T19:47:02.137,4,188,157754,122957,80.0
2026-04-18T19:47:02.177,4,189,157754,122957,80.0
2026-04-18T19:47:02.217,4,190,157722,122880,80.0
2026-04-18T19:47:02.258,4,191,157722,122880,80.0
2026-04-18T19:47:02.297,4,192,157722,122880,80.0
2026-04-18T19:47:02.337,4,193,157722,122880,80.0
2026-04-18T19:47:02.376,4,194,157729,122837,80.0
2026-04-18T19:47:02.417,4,195,157729,122837,80.0
2026-04-18T19:47:02.456,4,196,157729,122837,80.0
2026-04-18T19:47:02.497,4,197,157729,122837,80.0
2026-04-18T19:47:02.537,4,198,157744,122853,80.0
2026-04-18T19:47:02.576,4,199,157744,122853,80.0
2026-04-18T19:47:02.617,4,200,157744,122853,80.0
2026-04-18T19:47:02.657,4,201,157744,122853,80.0
2026-04-18T19:47:02.696,4,202,157731,122903,80.0
2026-04-18T19:47:02.736,4,203,157731,122903,80.0
2026-04-18T19:47:02.776,4,204,157731,122903,80.0
2026-04-18T19:47:02.817,4,205,157731,122903,80.0
2026-04-18T19:47:02.856,4,206,157739,122954,80.0
2026-04-18T19:47:02.896,4,207,157739,122954,80.0
2026-04-18T19:47:02.936,4,208,157739,122954,80.0
2026-04-18T19:47:02.976,4,209,157739,122954,80.0
2026-04-18T19:47:03.016,4,210,157744,122980,80.0
2026-04-18T19:47:03.055,4,211,157744,122980,80.0
2026-04-18T19:47:03.096,4,212,157744,122980,80.0
2026-04-18T19:47:03.135,4,213,157744,122980,80.0
2026-04-18T19:47:03.176,4,214,157761,122997,80.0
2026-04-18T19:47:03.216,4,215,157761,122997,80.0
2026-04-18T19:47:03.256,4,216,157761,122997,80.0
2026-04-18T19:47:03.296,4,217,157761,122997,80.0
2026-04-18T19:47:03.336,4,218,157801,123021,80.0
2026-04-18T19:47:03.375,4,219,157801,123021,80.0
2026-04-18T19:47:03.415,4,220,157801,123021,80.0
2026-04-18T19:47:03.455,4,221,157801,123021,80.0
2026-04-18T19:47:03.495,4,222,157817,123112,80.0
2026-04-18T19:47:03.536,4,223,157817,123112,80.0
2026-04-18T19:47:03.575,4,224,157817,123112,80.0
2026-04-18T19:47:03.616,4,225,157817,123112,80.0
2026-04-18T19:47:03.655,4,226,157816,123163,80.0
2026-04-18T19:47:03.695,4,227,157816,123163,80.0
2026-04-18T19:47:03.735,4,228,157816,123163,80.0
2026-04-18T19:47:03.775,4,229,157816,123163,80.0
2026-04-18T19:47:03.815,4,230,157825,123156,80.0
2026-04-18T19:47:03.855,4,231,157825,123156,80.0
2026-04-18T19:47:03.895,4,232,157825,123156,80.0
2026-04-18T19:47:03.935,4,233,157825,123156,80.0
2026-04-18T19:47:03.975,4,234,157841,123155,80.0
2026-04-18T19:47:04.015,4,235,157841,123155,80.0
2026-04-18T19:47:04.055,4,236,157841,123155,80.0
2026-04-18T19:47:04.095,4,237,157841,123155,80.0
2026-04-18T19:47:04.135,4,238,157863,123141,80.0
2026-04-18T19:47:04.174,4,239,157863,123141,80.0
2026-04-18T19:47:04.214,4,240,157863,123141,80.0
2026-04-18T19:47:04.255,4,241,157863,123141,80.0
2026-04-18T19:47:04.295,4,242,157910,123189,80.0
2026-04-18T19:47:04.334,4,243,157910,123189,80.0
2026-04-18T19:47:04.374,4,244,157910,123189,80.0
2026-04-18T19:47:04.414,4,245,157910,123189,80.0
2026-04-18T19:47:04.454,4,246,157915,123235,80.0
2026-04-18T19:47:04.494,4,247,157915,123235,80.0
2026-04-18T19:47:04.534,4,248,157915,123235,80.0
2026-04-18T19:47:04.574,4,249,157915,123235,80.0
2026-04-18T19:47:04.614,4,250,157897,123228,80.0
2026-04-18T19:47:12.324,5,0,168776,139325,75.0
2026-04-18T19:47:12.365,5,1,168776,139325,75.0
2026-04-18T19:47:12.405,5,2,168776,139325,75.0
2026-04-18T19:47:12.445,5,3,168535,138744,75.0
2026-04-18T19:47:12.485,5,4,168535,138744,75.0
2026-04-18T19:47:12.525,5,5,168535,138744,75.0
2026-04-18T19:47:12.565,5,6,168535,138744,75.0
2026-04-18T19:47:12.605,5,7,167398,136285,75.0
2026-04-18T19:47:12.645,5,8,167398,136285,75.0
2026-04-18T19:47:12.684,5,9,167398,136285,75.0
2026-04-18T19:47:12.725,5,10,167398,136285,75.0
2026-04-18T19:47:12.765,5,11,164929,131659,75.0
2026-04-18T19:47:12.805,5,12,164929,131659,75.0
2026-04-18T19:47:12.845,5,13,164929,131659,75.0
2026-04-18T19:47:12.884,5,14,164929,131659,75.0
2026-04-18T19:47:12.924,5,15,162254,127642,75.0
2026-04-18T19:47:12.965,5,16,162254,127642,75.0
2026-04-18T19:47:13.005,5,17,162254,127642,75.0
2026-04-18T19:47:13.044,5,18,162254,127642,75.0
2026-04-18T19:47:13.085,5,19,160400,125358,75.0
2026-04-18T19:47:13.124,5,20,160400,125358,75.0
2026-04-18T19:47:13.164,5,21,160400,125358,75.0
2026-04-18T19:47:13.204,5,22,160400,125358,75.0
2026-04-18T19:47:13.244,5,23,159693,124450,75.0
2026-04-18T19:47:13.284,5,24,159693,124450,75.0
2026-04-18T19:47:13.324,5,25,159693,124450,75.0
2026-04-18T19:47:13.363,5,26,159693,124450,75.0
2026-04-18T19:47:13.403,5,27,159427,124271,75.0
2026-04-18T19:47:13.443,5,28,159427,124271,75.0
2026-04-18T19:47:13.484,5,29,159427,124271,75.0
2026-04-18T19:47:13.523,5,30,159427,124271,75.0
2026-04-18T19:47:13.564,5,31,159293,124152,75.0
2026-04-18T19:47:13.604,5,32,159293,124152,75.0
2026-04-18T19:47:13.644,5,33,159293,124152,75.0
2026-04-18T19:47:13.684,5,34,159293,124152,75.0
2026-04-18T19:47:13.724,5,35,159255,124106,75.0
2026-04-18T19:47:13.764,5,36,159255,124106,75.0
2026-04-18T19:47:13.804,5,37,159255,124106,75.0
2026-04-18T19:47:13.844,5,38,159255,124106,75.0
2026-04-18T19:47:13.884,5,39,159230,124097,75.0
2026-04-18T19:47:13.923,5,40,159230,124097,75.0
2026-04-18T19:47:13.963,5,41,159230,124097,75.0
2026-04-18T19:47:14.003,5,42,159230,124097,75.0
2026-04-18T19:47:14.043,5,43,159122,124003,75.0
2026-04-18T19:47:14.083,5,44,159122,124003,75.0
2026-04-18T19:47:14.123,5,45,159122,124003,75.0
2026-04-18T19:47:14.163,5,46,159122,124003,75.0
2026-04-18T19:47:14.203,5,47,158959,123843,75.0
2026-04-18T19:47:14.243,5,48,158959,123843,75.0
2026-04-18T19:47:14.283,5,49,158959,123843,75.0
2026-04-18T19:47:14.322,5,50,158959,123843,75.0
2026-04-18T19:47:14.363,5,51,158959,123827,75.0
2026-04-18T19:47:14.402,5,52,158959,123827,75.0
2026-04-18T19:47:14.442,5,53,158959,123827,75.0
2026-04-18T19:47:14.482,5,54,158959,123827,75.0
2026-04-18T19:47:14.522,5,55,159097,123998,75.0
2026-04-18T19:47:14.562,5,56,159097,123998,75.0
2026-04-18T19:47:14.603,5,57,159097,123998,75.0
2026-04-18T19:47:14.643,5,58,159097,123998,75.0
2026-04-18T19:47:14.683,5,59,159223,124230,75.0
2026-04-18T19:47:14.722,5,60,159223,124230,75.0
2026-04-18T19:47:14.762,5,61,159223,124230,75.0
2026-04-18T19:47:14.802,5,62,159223,124230,75.0
2026-04-18T19:47:14.842,5,63,159316,124422,75.0
2026-04-18T19:47:14.882,5,64,159316,124422,75.0
2026-04-18T19:47:14.922,5,65,159316,124422,75.0
2026-04-18T19:47:14.961,5,66,159316,124422,75.0
2026-04-18T19:47:15.002,5,67,159337,124483,75.0
2026-04-18T19:47:15.042,5,68,159337,124483,75.0
2026-04-18T19:47:15.082,5,69,159337,124483,75.0
2026-04-18T19:47:15.122,5,70,159337,124483,75.0
2026-04-18T19:47:15.162,5,71,159309,124546,75.0
2026-04-18T19:47:15.202,5,72,159309,124546,75.0
2026-04-18T19:47:15.242,5,73,159309,124546,75.0
2026-04-18T19:47:15.282,5,74,159309,124546,75.0
2026-04-18T19:47:15.322,5,75,159320,124578,75.0
2026-04-18T19:47:15.361,5,76,159320,124578,75.0
2026-04-18T19:47:15.401,5,77,159320,124578,75.0
2026-04-18T19:47:15.441,5,78,159320,124578,75.0
2026-04-18T19:47:15.481,5,79,159514,125001,75.0
2026-04-18T19:47:15.521,5,80,159514,125001,75.0
2026-04-18T19:47:15.561,5,81,159514,125001,75.0
2026-04-18T19:47:15.601,5,82,159514,125001,75.0
2026-04-18T19:47:15.641,5,83,159724,125415,75.0
2026-04-18T19:47:15.681,5,84,159724,125415,75.0
2026-04-18T19:47:15.721,5,85,159724,125415,75.0
2026-04-18T19:47:15.761,5,86,159724,125415,75.0
2026-04-18T19:47:15.801,5,87,159749,125424,75.0
2026-04-18T19:47:15.841,5,88,159749,125424,75.0
2026-04-18T19:47:15.881,5,89,159749,125424,75.0
2026-04-18T19:47:15.921,5,90,159749,125424,75.0
2026-04-18T19:47:15.961,5,91,159757,125391,75.0
2026-04-18T19:47:16.000,5,92,159757,125391,75.0
2026-04-18T19:47:16.040,5,93,159757,125391,75.0
2026-04-18T19:47:16.081,5,94,159757,125391,75.0
2026-04-18T19:47:16.121,5,95,159799,125362,75.0
2026-04-18T19:47:16.160,5,96,159799,125362,75.0
2026-04-18T19:47:16.201,5,97,159799,125362,75.0
2026-04-18T19:47:16.241,5,98,159799,125362,75.0
2026-04-18T19:47:16.280,5,99,159837,125409,75.0
2026-04-18T19:47:16.320,5,100,159837,125409,75.0
2026-04-18T19:47:16.360,5,101,159837,125409,75.0
2026-04-18T19:47:16.400,5,102,159837,125409,75.0
2026-04-18T19:47:16.440,5,103,159719,125107,75.0
2026-04-18T19:47:16.480,5,104,159719,125107,75.0
2026-04-18T19:47:16.520,5,105,159719,125107,75.0
2026-04-18T19:47:16.560,5,106,159719,125107,75.0
2026-04-18T19:47:16.600,5,107,159462,124610,75.0
2026-04-18T19:47:16.639,5,108,159462,124610,75.0
2026-04-18T19:47:16.679,5,109,159462,124610,75.0
2026-04-18T19:47:16.720,5,110,159462,124610,75.0
2026-04-18T19:47:16.760,5,111,159270,124256,75.0
2026-04-18T19:47:16.799,5,112,159270,124256,75.0
2026-04-18T19:47:16.840,5,113,159270,124256,75.0
2026-04-18T19:47:16.880,5,114,159270,124256,75.0
2026-04-18T19:47:16.919,5,115,159206,124094,75.0
2026-04-18T19:47:16.960,5,116,159206,124094,75.0
2026-04-18T19:47:17.000,5,117,159206,124094,75.0
2026-04-18T19:47:17.039,5,118,159206,124094,75.0
2026-04-18T19:47:17.079,5,119,159228,124127,75.0
2026-04-18T19:47:17.119,5,120,159228,124127,75.0
2026-04-18T19:47:17.159,5,121,159228,124127,75.0
2026-04-18T19:47:17.199,5,122,159228,124127,75.0
2026-04-18T19:47:17.240,5,123,159265,124229,75.0
2026-04-18T19:47:17.279,5,124,159265,124229,75.0
2026-04-18T19:47:17.319,5,125,159265,124229,75.0
2026-04-18T19:47:17.359,5,126,159265,124229,75.0
2026-04-18T19:47:17.399,5,127,159272,124314,75.0
2026-04-18T19:47:17.439,5,128,159272,124314,75.0
2026-04-18T19:47:17.479,5,129,159272,124314,75.0
2026-04-18T19:47:17.518,5,130,159272,124314,75.0
2026-04-18T19:47:17.558,5,131,159295,124403,75.0
2026-04-18T19:47:17.599,5,132,159295,124403,75.0
2026-04-18T19:47:17.639,5,133,159295,124403,75.0
2026-04-18T19:47:17.679,5,134,159295,124403,75.0
2026-04-18T19:47:17.719,5,135,159379,124525,75.0
2026-04-18T19:47:17.759,5,136,159379,124525,75.0
2026-04-18T19:47:17.798,5,137,159379,124525,75.0
2026-04-18T19:47:17.838,5,138,159379,124525,75.0
2026-04-18T19:47:17.878,5,139,159548,124807,75.0
2026-04-18T19:47:17.919,5,140,159548,124807,75.0
2026-04-18T19:47:17.958,5,141,159548,124807,75.0
2026-04-18T19:47:17.999,5,142,159548,124807,75.0
2026-04-18T19:47:18.038,5,143,159672,125056,75.0
2026-04-18T19:47:18.078,5,144,159672,125056,75.0
2026-04-18T19:47:18.118,5,145,159672,125056,75.0
2026-04-18T19:47:18.158,5,146,159672,125056,75.0
2026-04-18T19:47:18.198,5,147,159750,125190,75.0
2026-04-18T19:47:18.238,5,148,159750,125190,75.0
2026-04-18T19:47:18.278,5,149,159750,125190,75.0
2026-04-18T19:47:18.318,5,150,159750,125190,75.0
2026-04-18T19:47:18.358,5,151,159754,125139,75.0
2026-04-18T19:47:18.398,5,152,159754,125139,75.0
2026-04-18T19:47:18.438,5,153,159754,125139,75.0
2026-04-18T19:47:18.478,5,154,159754,125139,75.0
2026-04-18T19:47:18.518,5,155,159760,125124,75.0
2026-04-18T19:47:18.558,5,156,159760,125124,75.0
2026-04-18T19:47:18.597,5,157,159760,125124,75.0
2026-04-18T19:47:18.638,5,158,159760,125124,75.0
2026-04-18T19:47:18.677,5,159,159789,125078,75.0
2026-04-18T19:47:18.718,5,160,159789,125078,75.0
2026-04-18T19:47:18.757,5,161,159789,125078,75.0
2026-04-18T19:47:18.797,5,162,159789,125078,75.0
2026-04-18T19:47:18.837,5,163,159703,124905,75.0
2026-04-18T19:47:18.877,5,164,159703,124905,75.0
2026-04-18T19:47:18.917,5,165,159703,124905,75.0
2026-04-18T19:47:18.957,5,166,159703,124905,75.0
2026-04-18T19:47:18.997,5,167,159517,124569,75.0
2026-04-18T19:47:19.036,5,168,159517,124569,75.0
2026-04-18T19:47:19.077,5,169,159517,124569,75.0
2026-04-18T19:47:19.116,5,170,159517,124569,75.0
2026-04-18T19:47:19.157,5,171,159357,124268,75.0
2026-04-18T19:47:19.197,5,172,159357,124268,75.0
2026-04-18T19:47:19.237,5,173,159357,124268,75.0
2026-04-18T19:47:19.277,5,174,159357,124268,75.0
2026-04-18T19:47:19.317,5,175,159284,124109,75.0
2026-04-18T19:47:19.356,5,176,159284,124109,75.0
2026-04-18T19:47:19.396,5,177,159284,124109,75.0
2026-04-18T19:47:19.436,5,178,159284,124109,75.0
2026-04-18T19:47:19.476,5,179,159335,124166,75.0
2026-04-18T19:47:19.516,5,180,159335,124166,75.0
2026-04-18T19:47:19.556,5,181,159335,124166,75.0
2026-04-18T19:47:19.596,5,182,159335,124166,75.0
2026-04-18T19:47:19.636,5,183,159399,124342,75.0
2026-04-18T19:47:19.676,5,184,159399,124342,75.0
2026-04-18T19:47:19.716,5,185,159399,124342,75.0
2026-04-18T19:47:19.756,5,186,159399,124342,75.0
2026-04-18T19:47:19.796,5,187,159416,124408,75.0
2026-04-18T19:47:19.836,5,188,159416,124408,75.0
2026-04-18T19:47:19.876,5,189,159416,124408,75.0
2026-04-18T19:47:19.916,5,190,159416,124408,75.0
2026-04-18T19:47:19.956,5,191,159495,124536,75.0
2026-04-18T19:47:19.996,5,192,159495,124536,75.0
2026-04-18T19:47:20.036,5,193,159495,124536,75.0
2026-04-18T19:47:20.076,5,194,159495,124536,75.0
2026-04-18T19:47:20.115,5,195,159595,124726,75.0
2026-04-18T19:47:20.155,5,196,159595,124726,75.0
2026-04-18T19:47:20.195,5,197,159595,124726,75.0
2026-04-18T19:47:20.235,5,198,159595,124726,75.0
2026-04-18T19:47:20.275,5,199,159690,124873,75.0
2026-04-18T19:47:20.315,5,200,159690,124873,75.0
2026-04-18T19:47:20.355,5,201,159690,124873,75.0
2026-04-18T19:47:20.395,5,202,159690,124873,75.0
2026-04-18T19:47:20.435,5,203,159806,125118,75.0
2026-04-18T19:47:20.475,5,204,159806,125118,75.0
2026-04-18T19:47:20.515,5,205,159806,125118,75.0
2026-04-18T19:47:20.555,5,206,159806,125118,75.0
2026-04-18T19:47:20.595,5,207,159826,125178,75.0
2026-04-18T19:47:20.635,5,208,159826,125178,75.0
2026-04-18T19:47:20.675,5,209,159826,125178,75.0
2026-04-18T19:47:20.715,5,210,159826,125178,75.0
2026-04-18T19:47:20.755,5,211,159798,125113,75.0
2026-04-18T19:47:20.795,5,212,159798,125113,75.0
2026-04-18T19:47:20.835,5,213,159798,125113,75.0
2026-04-18T19:47:20.875,5,214,159798,125113,75.0
2026-04-18T19:47:20.915,5,215,159811,125133,75.0
2026-04-18T19:47:20.954,5,216,159811,125133,75.0
2026-04-18T19:47:20.994,5,217,159811,125133,75.0
2026-04-18T19:47:21.034,5,218,159811,125133,75.0
2026-04-18T19:47:21.074,5,219,159812,125029,75.0
2026-04-18T19:47:21.114,5,220,159812,125029,75.0
2026-04-18T19:47:21.154,5,221,159812,125029,75.0
2026-04-18T19:47:21.194,5,222,159812,125029,75.0
2026-04-18T19:47:21.234,5,223,159811,124993,75.0
2026-04-18T19:47:21.274,5,224,159811,124993,75.0
2026-04-18T19:47:21.314,5,225,159811,124993,75.0
2026-04-18T19:47:21.354,5,226,159811,124993,75.0
2026-04-18T19:47:21.394,5,227,159656,124762,75.0
2026-04-18T19:47:21.434,5,228,159656,124762,75.0
2026-04-18T19:47:21.474,5,229,159656,124762,75.0
2026-04-18T19:47:21.514,5,230,159656,124762,75.0
2026-04-18T19:47:21.554,5,231,159457,124421,75.0
2026-04-18T19:47:21.594,5,232,159457,124421,75.0
2026-04-18T19:47:21.633,5,233,159457,124421,75.0
2026-04-18T19:47:21.673,5,234,159457,124421,75.0
2026-04-18T19:47:21.714,5,235,159326,124197,75.0
2026-04-18T19:47:21.753,5,236,159326,124197,75.0
2026-04-18T19:47:21.793,5,237,159326,124197,75.0
2026-04-18T19:47:21.833,5,238,159326,124197,75.0
2026-04-18T19:47:21.873,5,239,159303,124122,75.0
2026-04-18T19:47:21.913,5,240,159303,124122,75.0
2026-04-18T19:47:21.953,5,241,159303,124122,75.0
2026-04-18T19:47:21.993,5,242,159303,124122,75.0
2026-04-18T19:47:22.033,5,243,159375,124261,75.0
2026-04-18T19:47:22.073,5,244,159375,124261,75.0
2026-04-18T19:47:22.113,5,245,159375,124261,75.0
2026-04-18T19:47:22.153,5,246,159375,124261,75.0
2026-04-18T19:47:22.193,5,247,159441,124464,75.0
2026-04-18T19:47:22.233,5,248,159441,124464,75.0
2026-04-18T19:47:22.273,5,249,159441,124464,75.0
2026-04-18T19:47:22.313,5,250,159441,124464,75.0
2026-04-18T19:47:40.532,6,0,168899,140633,69.0
2026-04-18T19:47:40.572,6,1,170185,142153,69.0
2026-04-18T19:47:40.613,6,2,170185,142153,69.0
2026-04-18T19:47:40.652,6,3,170185,142153,69.0
2026-04-18T19:47:40.692,6,4,170185,142153,69.0
2026-04-18T19:47:40.732,6,5,169986,141238,69.0
2026-04-18T19:47:40.772,6,6,169986,141238,69.0
2026-04-18T19:47:40.812,6,7,169986,141238,69.0
2026-04-18T19:47:40.852,6,8,169986,141238,69.0
2026-04-18T19:47:40.892,6,9,168796,138399,69.0
2026-04-18T19:47:40.931,6,10,168796,138399,69.0
2026-04-18T19:47:40.971,6,11,168796,138399,69.0
2026-04-18T19:47:41.011,6,12,168796,138399,69.0
2026-04-18T19:47:41.051,6,13,166347,133600,69.0
2026-04-18T19:47:41.091,6,14,166347,133600,69.0
2026-04-18T19:47:41.131,6,15,166347,133600,69.0
2026-04-18T19:47:41.171,6,16,166347,133600,69.0
2026-04-18T19:47:41.211,6,17,164446,130494,69.0
2026-04-18T19:47:41.251,6,18,164446,130494,69.0
2026-04-18T19:47:41.291,6,19,164446,130494,69.0
2026-04-18T19:47:41.331,6,20,164446,130494,69.0
2026-04-18T19:47:41.371,6,21,161971,127267,69.0
2026-04-18T19:47:41.411,6,22,161971,127267,69.0
2026-04-18T19:47:41.451,6,23,161971,127267,69.0
2026-04-18T19:47:41.491,6,24,161971,127267,69.0
2026-04-18T19:47:41.531,6,25,159989,124579,69.0
2026-04-18T19:47:41.571,6,26,159989,124579,69.0
2026-04-18T19:47:41.611,6,27,159989,124579,69.0
2026-04-18T19:47:41.651,6,28,159989,124579,69.0
2026-04-18T19:47:41.691,6,29,159870,124463,69.0
2026-04-18T19:47:41.731,6,30,159870,124463,69.0
2026-04-18T19:47:41.771,6,31,159870,124463,69.0
2026-04-18T19:47:41.811,6,32,159870,124463,69.0
2026-04-18T19:47:41.851,6,33,159765,124451,69.0
2026-04-18T19:47:41.891,6,34,159765,124451,69.0
2026-04-18T19:47:41.930,6,35,159765,124451,69.0
2026-04-18T19:47:41.970,6,36,159765,124451,69.0
2026-04-18T19:47:42.011,6,37,159604,124401,69.0
2026-04-18T19:47:42.051,6,38,159604,124401,69.0
2026-04-18T19:47:42.090,6,39,159604,124401,69.0
2026-04-18T19:47:42.130,6,40,159604,124401,69.0
2026-04-18T19:47:42.171,6,41,159363,123995,69.0
2026-04-18T19:47:42.210,6,42,159363,123995,69.0
2026-04-18T19:47:42.250,6,43,159363,123995,69.0
2026-04-18T19:47:42.290,6,44,159363,123995,69.0
2026-04-18T19:47:42.330,6,45,159445,124014,69.0
2026-04-18T19:47:42.371,6,46,159445,124014,69.0
2026-04-18T19:47:42.410,6,47,159445,124014,69.0
2026-04-18T19:47:42.450,6,48,159445,124014,69.0
2026-04-18T19:47:42.490,6,49,159489,123967,69.0
2026-04-18T19:47:42.530,6,50,159489,123967,69.0
2026-04-18T19:47:42.570,6,51,159489,123967,69.0
2026-04-18T19:47:42.610,6,52,159489,123967,69.0
2026-04-18T19:47:42.650,6,53,159559,124026,69.0
2026-04-18T19:47:42.690,6,54,159559,124026,69.0
2026-04-18T19:47:42.730,6,55,159559,124026,69.0
2026-04-18T19:47:42.770,6,56,159559,124026,69.0
2026-04-18T19:47:42.809,6,57,159732,124286,69.0
2026-04-18T19:47:42.850,6,58,159732,124286,69.0
2026-04-18T19:47:42.890,6,59,159732,124286,69.0
2026-04-18T19:47:42.930,6,60,159732,124286,69.0
2026-04-18T19:47:42.970,6,61,159857,124445,69.0
2026-04-18T19:47:43.009,6,62,159857,124445,69.0
2026-04-18T19:47:43.049,6,63,159857,124445,69.0
2026-04-18T19:47:43.089,6,64,159857,124445,69.0
2026-04-18T19:47:43.129,6,65,159980,124599,69.0
2026-04-18T19:47:43.169,6,66,159980,124599,69.0
2026-04-18T19:47:43.209,6,67,159980,124599,69.0
2026-04-18T19:47:43.249,6,68,159980,124599,69.0
2026-04-18T19:47:43.289,6,69,160189,124839,69.0
2026-04-18T19:47:43.329,6,70,160189,124839,69.0
2026-04-18T19:47:43.369,6,71,160189,124839,69.0
2026-04-18T19:47:43.409,6,72,160189,124839,69.0
2026-04-18T19:47:43.449,6,73,160373,125177,69.0
2026-04-18T19:47:43.489,6,74,160373,125177,69.0
2026-04-18T19:47:43.529,6,75,160373,125177,69.0
2026-04-18T19:47:43.569,6,76,160373,125177,69.0
2026-04-18T19:47:43.609,6,77,160410,125290,69.0
2026-04-18T19:47:43.649,6,78,160410,125290,69.0
2026-04-18T19:47:43.689,6,79,160410,125290,69.0
2026-04-18T19:47:43.729,6,80,160410,125290,69.0
2026-04-18T19:47:43.769,6,81,160435,125326,69.0
2026-04-18T19:47:43.808,6,82,160435,125326,69.0
2026-04-18T19:47:43.848,6,83,160435,125326,69.0
2026-04-18T19:47:43.888,6,84,160435,125326,69.0
2026-04-18T19:47:43.928,6,85,160502,125430,69.0
2026-04-18T19:47:43.968,6,86,160502,125430,69.0
2026-04-18T19:47:44.008,6,87,160502,125430,69.0
2026-04-18T19:47:44.048,6,88,160502,125430,69.0
2026-04-18T19:47:44.088,6,89,160603,125538,69.0
2026-04-18T19:47:44.128,6,90,160603,125538,69.0
2026-04-18T19:47:44.168,6,91,160603,125538,69.0
2026-04-18T19:47:44.208,6,92,160603,125538,69.0
2026-04-18T19:47:44.248,6,93,160724,125764,69.0
2026-04-18T19:47:44.288,6,94,160724,125764,69.0
2026-04-18T19:47:44.327,6,95,160724,125764,69.0
2026-04-18T19:47:44.368,6,96,160724,125764,69.0
2026-04-18T19:47:44.407,6,97,160776,125905,69.0
2026-04-18T19:47:44.448,6,98,160776,125905,69.0
2026-04-18T19:47:44.488,6,99,160776,125905,69.0
2026-04-18T19:47:44.527,6,100,160776,125905,69.0
2026-04-18T19:47:44.568,6,101,160727,125763,69.0
2026-04-18T19:47:44.608,6,102,160727,125763,69.0
2026-04-18T19:47:44.648,6,103,160727,125763,69.0
2026-04-18T19:47:44.687,6,104,160727,125763,69.0
2026-04-18T19:47:44.728,6,105,160631,125511,69.0
2026-04-18T19:47:44.768,6,106,160631,125511,69.0
2026-04-18T19:47:44.808,6,107,160631,125511,69.0
2026-04-18T19:47:44.847,6,108,160631,125511,69.0
2026-04-18T19:47:44.887,6,109,160509,125220,69.0
2026-04-18T19:47:44.927,6,110,160509,125220,69.0
2026-04-18T19:47:44.967,6,111,160509,125220,69.0
2026-04-18T19:47:45.008,6,112,160509,125220,69.0
2026-04-18T19:47:45.047,6,113,160464,125209,69.0
2026-04-18T19:47:45.087,6,114,160464,125209,69.0
2026-04-18T19:47:45.127,6,115,160464,125209,69.0
2026-04-18T19:47:45.167,6,116,160464,125209,69.0
2026-04-18T19:47:45.207,6,117,160370,125133,69.0
2026-04-18T19:47:45.247,6,118,160370,125133,69.0
2026-04-18T19:47:45.287,6,119,160370,125133,69.0
2026-04-18T19:47:45.326,6,120,160370,125133,69.0
2026-04-18T19:47:45.366,6,121,160288,125032,69.0
2026-04-18T19:47:45.406,6,122,160288,125032,69.0
2026-04-18T19:47:45.447,6,123,160288,125032,69.0
2026-04-18T19:47:45.486,6,124,160288,125032,69.0
2026-04-18T19:47:45.526,6,125,160260,125044,69.0
2026-04-18T19:47:45.566,6,126,160260,125044,69.0
2026-04-18T19:47:45.607,6,127,160260,125044,69.0
2026-04-18T19:47:45.647,6,128,160260,125044,69.0
2026-04-18T19:47:45.687,6,129,160249,125056,69.0
2026-04-18T19:47:45.726,6,130,160249,125056,69.0
2026-04-18T19:47:45.766,6,131,160249,125056,69.0
2026-04-18T19:47:45.807,6,132,160249,125056,69.0
2026-04-18T19:47:45.846,6,133,160273,125184,69.0
2026-04-18T19:47:45.886,6,134,160273,125184,69.0
2026-04-18T19:47:45.926,6,135,160273,125184,69.0
2026-04-18T19:47:45.966,6,136,160273,125184,69.0
2026-04-18T19:47:46.006,6,137,160311,125398,69.0
2026-04-18T19:47:46.046,6,138,160311,125398,69.0
2026-04-18T19:47:46.086,6,139,160311,125398,69.0
2026-04-18T19:47:46.125,6,140,160311,125398,69.0
2026-04-18T19:47:46.166,6,141,160313,125441,69.0
2026-04-18T19:47:46.205,6,142,160313,125441,69.0
2026-04-18T19:47:46.245,6,143,160313,125441,69.0
2026-04-18T19:47:46.286,6,144,160313,125441,69.0
2026-04-18T19:47:46.326,6,145,160306,125474,69.0
2026-04-18T19:47:46.365,6,146,160306,125474,69.0
2026-04-18T19:47:46.406,6,147,160306,125474,69.0
2026-04-18T19:47:46.445,6,148,160306,125474,69.0
2026-04-18T19:47:46.485,6,149,160426,125878,69.0
2026-04-18T19:47:46.526,6,150,160426,125878,69.0
2026-04-18T19:47:46.566,6,151,160426,125878,69.0
2026-04-18T19:47:46.605,6,152,160426,125878,69.0
2026-04-18T19:47:46.645,6,153,160638,126313,69.0
2026-04-18T19:47:46.685,6,154,160638,126313,69.0
2026-04-18T19:47:46.725,6,155,160638,126313,69.0
2026-04-18T19:47:46.765,6,156,160638,126313,69.0
2026-04-18T19:47:46.805,6,157,160804,126669,69.0
2026-04-18T19:47:46.845,6,158,160804,126669,69.0
2026-04-18T19:47:46.885,6,159,160804,126669,69.0
2026-04-18T19:47:46.925,6,160,160804,126669,69.0
2026-04-18T19:47:46.965,6,161,160934,126937,69.0
2026-04-18T19:47:47.005,6,162,160934,126937,69.0
2026-04-18T19:47:47.045,6,163,160934,126937,69.0
2026-04-18T19:47:47.085,6,164,160934,126937,69.0
2026-04-18T19:47:47.125,6,165,160867,126679,69.0
2026-04-18T19:47:47.165,6,166,160867,126679,69.0
2026-04-18T19:47:47.204,6,167,160867,126679,69.0
2026-04-18T19:47:47.245,6,168,160867,126679,69.0
2026-04-18T19:47:47.284,6,169,160694,126204,69.0
2026-04-18T19:47:47.325,6,170,160694,126204,69.0
2026-04-18T19:47:47.364,6,171,160694,126204,69.0
2026-04-18T19:47:47.404,6,172,160694,126204,69.0
2026-04-18T19:47:47.444,6,173,160457,125640,69.0
2026-04-18T19:47:47.484,6,174,160457,125640,69.0
2026-04-18T19:47:47.524,6,175,160457,125640,69.0
2026-04-18T19:47:47.564,6,176,160457,125640,69.0
2026-04-18T19:47:47.604,6,177,160386,125530,69.0
2026-04-18T19:47:47.644,6,178,160386,125530,69.0
2026-04-18T19:47:47.684,6,179,160386,125530,69.0
2026-04-18T19:47:47.724,6,180,160386,125530,69.0
2026-04-18T19:47:47.764,6,181,160242,125341,69.0
2026-04-18T19:47:47.804,6,182,160242,125341,69.0
2026-04-18T19:47:47.844,6,183,160242,125341,69.0
2026-04-18T19:47:47.884,6,184,160242,125341,69.0
2026-04-18T19:47:47.924,6,185,160093,125068,69.0
2026-04-18T19:47:47.964,6,186,160093,125068,69.0
2026-04-18T19:47:48.004,6,187,160093,125068,69.0
2026-04-18T19:47:48.044,6,188,160093,125068,69.0
2026-04-18T19:47:48.083,6,189,160042,124970,69.0
2026-04-18T19:47:48.124,6,190,160042,124970,69.0
2026-04-18T19:47:48.163,6,191,160042,124970,69.0
2026-04-18T19:47:48.204,6,192,160042,124970,69.0
2026-04-18T19:47:48.243,6,193,159977,124848,69.0
2026-04-18T19:47:48.283,6,194,159977,124848,69.0
2026-04-18T19:47:48.323,6,195,159977,124848,69.0
2026-04-18T19:47:48.363,6,196,159977,124848,69.0
2026-04-18T19:47:48.403,6,197,160070,125147,69.0
2026-04-18T19:47:48.443,6,198,160070,125147,69.0
2026-04-18T19:47:48.483,6,199,160070,125147,69.0
2026-04-18T19:47:48.523,6,200,160070,125147,69.0
2026-04-18T19:47:48.563,6,201,160001,125212,69.0
2026-04-18T19:47:48.603,6,202,160001,125212,69.0
2026-04-18T19:47:48.643,6,203,160001,125212,69.0
2026-04-18T19:47:48.683,6,204,160001,125212,69.0
2026-04-18T19:47:48.723,6,205,159968,125188,69.0
2026-04-18T19:47:48.763,6,206,159968,125188,69.0
2026-04-18T19:47:48.803,6,207,159968,125188,69.0
2026-04-18T19:47:48.843,6,208,159968,125188,69.0
2026-04-18T19:47:48.883,6,209,159948,125173,69.0
2026-04-18T19:47:48.923,6,210,159948,125173,69.0
2026-04-18T19:47:48.963,6,211,159948,125173,69.0
2026-04-18T19:47:49.002,6,212,159948,125173,69.0
2026-04-18T19:47:49.043,6,213,160020,125252,69.0
2026-04-18T19:47:49.083,6,214,160020,125252,69.0
2026-04-18T19:47:49.122,6,215,160020,125252,69.0
2026-04-18T19:47:49.162,6,216,160020,125252,69.0
2026-04-18T19:47:49.202,6,217,160138,125496,69.0
2026-04-18T19:47:49.243,6,218,160138,125496,69.0
2026-04-18T19:47:49.282,6,219,160138,125496,69.0
2026-04-18T19:47:49.322,6,220,160138,125496,69.0
2026-04-18T19:47:49.362,6,221,160256,125826,69.0
2026-04-18T19:47:49.402,6,222,160256,125826,69.0
2026-04-18T19:47:49.442,6,223,160256,125826,69.0
2026-04-18T19:47:49.482,6,224,160256,125826,69.0
2026-04-18T19:47:49.522,6,225,160334,125966,69.0
2026-04-18T19:47:49.562,6,226,160334,125966,69.0
2026-04-18T19:47:49.602,6,227,160334,125966,69.0
2026-04-18T19:47:49.642,6,228,160334,125966,69.0
2026-04-18T19:47:49.682,6,229,160322,125918,69.0
2026-04-18T19:47:49.722,6,230,160322,125918,69.0
2026-04-18T19:47:49.761,6,231,160322,125918,69.0
2026-04-18T19:47:49.801,6,232,160322,125918,69.0
2026-04-18T19:47:49.841,6,233,160324,125879,69.0
2026-04-18T19:47:49.882,6,234,160324,125879,69.0
2026-04-18T19:47:49.921,6,235,160324,125879,69.0
2026-04-18T19:47:49.961,6,236,160324,125879,69.0
2026-04-18T19:47:50.001,6,237,160385,125921,69.0
2026-04-18T19:47:50.041,6,238,160385,125921,69.0
2026-04-18T19:47:50.082,6,239,160385,125921,69.0
2026-04-18T19:47:50.121,6,240,160385,125921,69.0
2026-04-18T19:47:50.161,6,241,160381,125893,69.0
2026-04-18T19:47:50.201,6,242,160381,125893,69.0
2026-04-18T19:47:50.241,6,243,160381,125893,69.0
2026-04-18T19:47:50.281,6,244,160381,125893,69.0
2026-04-18T19:47:50.321,6,245,160238,125613,69.0
2026-04-18T19:47:50.361,6,246,160238,125613,69.0
2026-04-18T19:47:50.401,6,247,160238,125613,69.0
2026-04-18T19:47:50.440,6,248,160238,125613,69.0
2026-04-18T19:47:50.480,6,249,160022,125170,69.0
2026-04-18T19:47:50.521,6,250,160022,125170,69.0
2026-04-18T19:47:54.116,7,0,164748,131594,71.0
2026-04-18T19:47:54.156,7,1,166163,134091,71.0
2026-04-18T19:47:54.196,7,2,166163,134091,71.0
2026-04-18T19:47:54.236,7,3,166163,134091,71.0
2026-04-18T19:47:54.276,7,4,166163,134091,71.0
2026-04-18T19:47:54.316,7,5,166474,134496,71.0
2026-04-18T19:47:54.356,7,6,166474,134496,71.0
2026-04-18T19:47:54.396,7,7,166474,134496,71.0
2026-04-18T19:47:54.436,7,8,166474,134496,71.0
2026-04-18T19:47:54.476,7,9,166032,133071,71.0
2026-04-18T19:47:54.516,7,10,166032,133071,71.0
2026-04-18T19:47:54.556,7,11,166032,133071,71.0
2026-04-18T19:47:54.595,7,12,166032,133071,71.0
2026-04-18T19:47:54.636,7,13,164452,130224,71.0
2026-04-18T19:47:54.676,7,14,164452,130224,71.0
2026-04-18T19:47:54.716,7,15,164452,130224,71.0
2026-04-18T19:47:54.756,7,16,164452,130224,71.0
2026-04-18T19:47:54.796,7,17,162030,127127,71.0
2026-04-18T19:47:54.836,7,18,162030,127127,71.0
2026-04-18T19:47:54.876,7,19,162030,127127,71.0
2026-04-18T19:47:54.915,7,20,162030,127127,71.0
2026-04-18T19:47:54.955,7,21,159976,124311,71.0
2026-04-18T19:47:54.995,7,22,159976,124311,71.0
2026-04-18T19:47:55.035,7,23,159976,124311,71.0
2026-04-18T19:47:55.075,7,24,159976,124311,71.0
2026-04-18T19:47:55.115,7,25,159875,124181,71.0
2026-04-18T19:47:55.155,7,26,159875,124181,71.0
2026-04-18T19:47:55.196,7,27,159875,124181,71.0
2026-04-18T19:47:55.235,7,28,159875,124181,71.0
2026-04-18T19:47:55.275,7,29,159865,124197,71.0
2026-04-18T19:47:55.315,7,30,159865,124197,71.0
2026-04-18T19:47:55.356,7,31,159865,124197,71.0
2026-04-18T19:47:55.395,7,32,159865,124197,71.0
2026-04-18T19:47:55.435,7,33,159823,124084,71.0
2026-04-18T19:47:55.475,7,34,159823,124084,71.0
2026-04-18T19:47:55.515,7,35,159823,124084,71.0
2026-04-18T19:47:55.555,7,36,159823,124084,71.0
2026-04-18T19:47:55.595,7,37,159922,124265,71.0
2026-04-18T19:47:55.634,7,38,159922,124265,71.0
2026-04-18T19:47:55.675,7,39,159922,124265,71.0
2026-04-18T19:47:55.715,7,40,159922,124265,71.0
2026-04-18T19:47:55.755,7,41,159953,124321,71.0
2026-04-18T19:47:55.795,7,42,159953,124321,71.0
2026-04-18T19:47:55.834,7,43,159953,124321,71.0
2026-04-18T19:47:55.874,7,44,159953,124321,71.0
2026-04-18T19:47:55.915,7,45,159877,124223,71.0
2026-04-18T19:47:55.954,7,46,159877,124223,71.0
2026-04-18T19:47:55.994,7,47,159877,124223,71.0
2026-04-18T19:47:56.034,7,48,159877,124223,71.0
2026-04-18T19:47:56.074,7,49,159807,124109,71.0
2026-04-18T19:47:56.114,7,50,159807,124109,71.0
2026-04-18T19:47:56.154,7,51,159807,124109,71.0
2026-04-18T19:47:56.194,7,52,159807,124109,71.0
2026-04-18T19:47:56.234,7,53,159779,124068,71.0
2026-04-18T19:47:56.274,7,54,159779,124068,71.0
2026-04-18T19:47:56.314,7,55,159779,124068,71.0
2026-04-18T19:47:56.354,7,56,159779,124068,71.0
2026-04-18T19:47:56.394,7,57,159778,124129,71.0
2026-04-18T19:47:56.433,7,58,159778,124129,71.0
2026-04-18T19:47:56.473,7,59,159778,124129,71.0
2026-04-18T19:47:56.514,7,60,159778,124129,71.0
2026-04-18T19:47:56.554,7,61,159768,124195,71.0
2026-04-18T19:47:56.593,7,62,159768,124195,71.0
2026-04-18T19:47:56.633,7,63,159768,124195,71.0
2026-04-18T19:47:56.673,7,64,159768,124195,71.0
2026-04-18T19:47:56.713,7,65,159779,124272,71.0
2026-04-18T19:47:56.754,7,66,159779,124272,71.0
2026-04-18T19:47:56.793,7,67,159779,124272,71.0
2026-04-18T19:47:56.833,7,68,159779,124272,71.0
2026-04-18T19:47:56.873,7,69,159778,124301,71.0
2026-04-18T19:47:56.913,7,70,159778,124301,71.0
2026-04-18T19:47:56.953,7,71,159778,124301,71.0
2026-04-18T19:47:56.993,7,72,159778,124301,71.0
2026-04-18T19:47:57.033,7,73,159872,124425,71.0
2026-04-18T19:47:57.073,7,74,159872,124425,71.0
2026-04-18T19:47:57.113,7,75,159872,124425,71.0
2026-04-18T19:47:57.153,7,76,159872,124425,71.0
2026-04-18T19:47:57.193,7,77,159942,124640,71.0
2026-04-18T19:47:57.233,7,78,159942,124640,71.0
2026-04-18T19:47:57.273,7,79,159942,124640,71.0
2026-04-18T19:47:57.313,7,80,159942,124640,71.0
2026-04-18T19:47:57.353,7,81,159923,124687,71.0
2026-04-18T19:47:57.393,7,82,159923,124687,71.0
2026-04-18T19:47:57.433,7,83,159923,124687,71.0
2026-04-18T19:47:57.473,7,84,159923,124687,71.0
2026-04-18T19:47:57.513,7,85,159915,124672,71.0
2026-04-18T19:47:57.553,7,86,159915,124672,71.0
2026-04-18T19:47:57.593,7,87,159915,124672,71.0
2026-04-18T19:47:57.633,7,88,159915,124672,71.0
2026-04-18T19:47:57.672,7,89,159917,124652,71.0
2026-04-18T19:47:57.712,7,90,159917,124652,71.0
2026-04-18T19:47:57.752,7,91,159917,124652,71.0
2026-04-18T19:47:57.792,7,92,159917,124652,71.0
2026-04-18T19:47:57.833,7,93,159916,124624,71.0
2026-04-18T19:47:57.872,7,94,159916,124624,71.0
2026-04-18T19:47:57.912,7,95,159916,124624,71.0
2026-04-18T19:47:57.952,7,96,159916,124624,71.0
2026-04-18T19:47:57.992,7,97,160014,124781,71.0
2026-04-18T19:47:58.033,7,98,160014,124781,71.0
2026-04-18T19:47:58.072,7,99,160014,124781,71.0
2026-04-18T19:47:58.112,7,100,160014,124781,71.0
2026-04-18T19:47:58.152,7,101,160006,124766,71.0
2026-04-18T19:47:58.191,7,102,160006,124766,71.0
2026-04-18T19:47:58.231,7,103,160006,124766,71.0
2026-04-18T19:47:58.272,7,104,160006,124766,71.0
2026-04-18T19:47:58.311,7,105,159888,124539,71.0
2026-04-18T19:47:58.351,7,106,159888,124539,71.0
2026-04-18T19:47:58.392,7,107,159888,124539,71.0
2026-04-18T19:47:58.432,7,108,159888,124539,71.0
2026-04-18T19:47:58.472,7,109,159757,124277,71.0
2026-04-18T19:47:58.511,7,110,159757,124277,71.0
2026-04-18T19:47:58.551,7,111,159757,124277,71.0
2026-04-18T19:47:58.592,7,112,159757,124277,71.0
2026-04-18T19:47:58.631,7,113,159696,124137,71.0
2026-04-18T19:47:58.671,7,114,159696,124137,71.0
2026-04-18T19:47:58.711,7,115,159696,124137,71.0
2026-04-18T19:47:58.751,7,116,159696,124137,71.0
2026-04-18T19:47:58.791,7,117,159679,124083,71.0
2026-04-18T19:47:58.831,7,118,159679,124083,71.0
2026-04-18T19:47:58.871,7,119,159679,124083,71.0
2026-04-18T19:47:58.911,7,120,159679,124083,71.0
2026-04-18T19:47:58.951,7,121,159676,124126,71.0
2026-04-18T19:47:58.991,7,122,159676,124126,71.0
2026-04-18T19:47:59.031,7,123,159676,124126,71.0
2026-04-18T19:47:59.071,7,124,159676,124126,71.0
2026-04-18T19:47:59.111,7,125,159669,124195,71.0
2026-04-18T19:47:59.151,7,126,159669,124195,71.0
2026-04-18T19:47:59.191,7,127,159669,124195,71.0
2026-04-18T19:47:59.231,7,128,159669,124195,71.0
2026-04-18T19:47:59.270,7,129,159674,124284,71.0
2026-04-18T19:47:59.310,7,130,159674,124284,71.0
2026-04-18T19:47:59.350,7,131,159674,124284,71.0
2026-04-18T19:47:59.390,7,132,159674,124284,71.0
2026-04-18T19:47:59.431,7,133,159690,124365,71.0
2026-04-18T19:47:59.470,7,134,159690,124365,71.0
2026-04-18T19:47:59.511,7,135,159690,124365,71.0
2026-04-18T19:47:59.551,7,136,159690,124365,71.0
2026-04-18T19:47:59.591,7,137,159756,124414,71.0
2026-04-18T19:47:59.630,7,138,159756,124414,71.0
2026-04-18T19:47:59.670,7,139,159756,124414,71.0
2026-04-18T19:47:59.710,7,140,159756,124414,71.0
2026-04-18T19:47:59.750,7,141,159831,124596,71.0
2026-04-18T19:47:59.790,7,142,159831,124596,71.0
2026-04-18T19:47:59.830,7,143,159831,124596,71.0
2026-04-18T19:47:59.870,7,144,159831,124596,71.0
2026-04-18T19:47:59.910,7,145,159885,124745,71.0
2026-04-18T19:47:59.949,7,146,159885,124745,71.0
2026-04-18T19:47:59.990,7,147,159885,124745,71.0
2026-04-18T19:48:00.030,7,148,159885,124745,71.0
2026-04-18T19:48:00.070,7,149,159877,124720,71.0
2026-04-18T19:48:00.110,7,150,159877,124720,71.0
2026-04-18T19:48:00.150,7,151,159877,124720,71.0
2026-04-18T19:48:00.190,7,152,159877,124720,71.0
2026-04-18T19:48:00.230,7,153,159875,124692,71.0
2026-04-18T19:48:00.269,7,154,159875,124692,71.0
2026-04-18T19:48:00.310,7,155,159875,124692,71.0
2026-04-18T19:48:00.349,7,156,159875,124692,71.0
2026-04-18T19:48:00.389,7,157,159903,124676,71.0
2026-04-18T19:48:00.429,7,158,159903,124676,71.0
2026-04-18T19:48:00.470,7,159,159903,124676,71.0
2026-04-18T19:48:00.510,7,160,159903,124676,71.0
2026-04-18T19:48:00.549,7,161,159925,124777,71.0
2026-04-18T19:48:00.589,7,162,159925,124777,71.0
2026-04-18T19:48:00.629,7,163,159925,124777,71.0
2026-04-18T19:48:00.669,7,164,159925,124777,71.0
2026-04-18T19:48:00.709,7,165,159887,124688,71.0
2026-04-18T19:48:00.749,7,166,159887,124688,71.0
2026-04-18T19:48:00.788,7,167,159887,124688,71.0
2026-04-18T19:48:00.828,7,168,159887,124688,71.0
2026-04-18T19:48:00.868,7,169,159718,124306,71.0
2026-04-18T19:48:00.909,7,170,159718,124306,71.0
2026-04-18T19:48:00.949,7,171,159718,124306,71.0
2026-04-18T19:48:00.989,7,172,159718,124306,71.0
2026-04-18T19:48:01.029,7,173,159629,124105,71.0
2026-04-18T19:48:01.069,7,174,159629,124105,71.0
2026-04-18T19:48:01.108,7,175,159629,124105,71.0
2026-04-18T19:48:01.149,7,176,159629,124105,71.0
2026-04-18T19:48:01.189,7,177,159589,123998,71.0
2026-04-18T19:48:01.228,7,178,159589,123998,71.0
2026-04-18T19:48:01.269,7,179,159589,123998,71.0
2026-04-18T19:48:01.309,7,180,159589,123998,71.0
2026-04-18T19:48:01.348,7,181,159595,124015,71.0
2026-04-18T19:48:01.388,7,182,159595,124015,71.0
2026-04-18T19:48:01.428,7,183,159595,124015,71.0
2026-04-18T19:48:01.468,7,184,159595,124015,71.0
2026-04-18T19:48:01.508,7,185,159617,124110,71.0
2026-04-18T19:48:01.548,7,186,159617,124110,71.0
2026-04-18T19:48:01.588,7,187,159617,124110,71.0
2026-04-18T19:48:01.628,7,188,159617,124110,71.0
2026-04-18T19:48:01.668,7,189,159671,124260,71.0
2026-04-18T19:48:01.708,7,190,159671,124260,71.0
2026-04-18T19:48:01.748,7,191,159671,124260,71.0
2026-04-18T19:48:01.787,7,192,159671,124260,71.0
2026-04-18T19:48:01.827,7,193,159716,124354,71.0
2026-04-18T19:48:01.868,7,194,159716,124354,71.0
2026-04-18T19:48:01.908,7,195,159716,124354,71.0
2026-04-18T19:48:01.947,7,196,159716,124354,71.0
2026-04-18T19:48:01.988,7,197,159736,124344,71.0
2026-04-18T19:48:02.028,7,198,159736,124344,71.0
2026-04-18T19:48:02.068,7,199,159736,124344,71.0
2026-04-18T19:48:02.107,7,200,159736,124344,71.0
2026-04-18T19:48:02.148,7,201,159795,124412,71.0
2026-04-18T19:48:02.187,7,202,159795,124412,71.0
2026-04-18T19:48:02.228,7,203,159795,124412,71.0
2026-04-18T19:48:02.267,7,204,159795,124412,71.0
2026-04-18T19:48:02.307,7,205,159842,124535,71.0
2026-04-18T19:48:02.347,7,206,159842,124535,71.0
2026-04-18T19:48:02.387,7,207,159842,124535,71.0
2026-04-18T19:48:02.427,7,208,159842,124535,71.0
2026-04-18T19:48:02.467,7,209,159888,124644,71.0
2026-04-18T19:48:02.507,7,210,159888,124644,71.0
2026-04-18T19:48:02.548,7,211,159888,124644,71.0
2026-04-18T19:48:02.587,7,212,159888,124644,71.0
2026-04-18T19:48:02.627,7,213,159866,124583,71.0
2026-04-18T19:48:02.667,7,214,159866,124583,71.0
2026-04-18T19:48:02.707,7,215,159866,124583,71.0
2026-04-18T19:48:02.747,7,216,159866,124583,71.0
2026-04-18T19:48:02.787,7,217,159878,124601,71.0
2026-04-18T19:48:02.826,7,218,159878,124601,71.0
2026-04-18T19:48:02.866,7,219,159878,124601,71.0
2026-04-18T19:48:02.906,7,220,159878,124601,71.0
2026-04-18T19:48:02.947,7,221,159917,124629,71.0
2026-04-18T19:48:02.986,7,222,159917,124629,71.0
2026-04-18T19:48:03.026,7,223,159917,124629,71.0
2026-04-18T19:48:03.066,7,224,159917,124629,71.0
2026-04-18T19:48:03.106,7,225,159911,124655,71.0
2026-04-18T19:48:03.146,7,226,159911,124655,71.0
2026-04-18T19:48:03.186,7,227,159911,124655,71.0
2026-04-18T19:48:03.226,7,228,159911,124655,71.0
2026-04-18T19:48:03.266,7,229,159851,124553,71.0
2026-04-18T19:48:03.306,7,230,159851,124553,71.0
2026-04-18T19:48:03.346,7,231,159851,124553,71.0
2026-04-18T19:48:03.386,7,232,159851,124553,71.0
2026-04-18T19:48:03.426,7,233,159743,124332,71.0
2026-04-18T19:48:03.466,7,234,159743,124332,71.0
2026-04-18T19:48:03.506,7,235,159743,124332,71.0
2026-04-18T19:48:03.546,7,236,159743,124332,71.0
2026-04-18T19:48:03.586,7,237,159683,124194,71.0
2026-04-18T19:48:03.626,7,238,159683,124194,71.0
2026-04-18T19:48:03.665,7,239,159683,124194,71.0
2026-04-18T19:48:03.706,7,240,159683,124194,71.0
2026-04-18T19:48:03.746,7,241,159679,124131,71.0
2026-04-18T19:48:03.786,7,242,159679,124131,71.0
2026-04-18T19:48:03.826,7,243,159679,124131,71.0
2026-04-18T19:48:03.865,7,244,159679,124131,71.0
2026-04-18T19:48:03.905,7,245,159713,124249,71.0
2026-04-18T19:48:03.945,7,246,159713,124249,71.0
2026-04-18T19:48:03.985,7,247,159713,124249,71.0
2026-04-18T19:48:04.026,7,248,159713,124249,71.0
2026-04-18T19:48:04.065,7,249,159749,124373,71.0
2026-04-18T19:48:04.105,7,250,159749,124373,71.0
2026-04-18T19:48:07.341,8,0,168859,138706,73.0
2026-04-18T19:48:07.381,8,1,168859,138706,73.0
2026-04-18T19:48:07.421,8,2,168703,138402,73.0
2026-04-18T19:48:07.461,8,3,168703,138402,73.0
2026-04-18T19:48:07.501,8,4,168703,138402,73.0
2026-04-18T19:48:07.541,8,5,168703,138402,73.0
2026-04-18T19:48:07.581,8,6,167847,136519,73.0
2026-04-18T19:48:07.621,8,7,167847,136519,73.0
2026-04-18T19:48:07.661,8,8,167847,136519,73.0
2026-04-18T19:48:07.701,8,9,167847,136519,73.0
2026-04-18T19:48:07.741,8,10,166078,132981,73.0
2026-04-18T19:48:07.781,8,11,166078,132981,73.0
2026-04-18T19:48:07.821,8,12,166078,132981,73.0
2026-04-18T19:48:07.861,8,13,166078,132981,73.0
2026-04-18T19:48:07.901,8,14,163299,128893,73.0
2026-04-18T19:48:07.941,8,15,163299,128893,73.0
2026-04-18T19:48:07.981,8,16,163299,128893,73.0
2026-04-18T19:48:08.021,8,17,163299,128893,73.0
2026-04-18T19:48:08.061,8,18,160170,125398,73.0
2026-04-18T19:48:08.100,8,19,160170,125398,73.0
2026-04-18T19:48:08.141,8,20,160170,125398,73.0
2026-04-18T19:48:08.180,8,21,160170,125398,73.0
2026-04-18T19:48:08.221,8,22,159377,124135,73.0
2026-04-18T19:48:08.260,8,23,159377,124135,73.0
2026-04-18T19:48:08.301,8,24,159377,124135,73.0
2026-04-18T19:48:08.340,8,25,159377,124135,73.0
2026-04-18T19:48:08.381,8,26,159252,123974,73.0
2026-04-18T19:48:08.420,8,27,159252,123974,73.0
2026-04-18T19:48:08.460,8,28,159252,123974,73.0
2026-04-18T19:48:08.500,8,29,159252,123974,73.0
2026-04-18T19:48:08.540,8,30,159217,124020,73.0
2026-04-18T19:48:08.580,8,31,159217,124020,73.0
2026-04-18T19:48:08.620,8,32,159217,124020,73.0
2026-04-18T19:48:08.660,8,33,159217,124020,73.0
2026-04-18T19:48:08.700,8,34,159224,124080,73.0
2026-04-18T19:48:08.740,8,35,159224,124080,73.0
2026-04-18T19:48:08.780,8,36,159224,124080,73.0
2026-04-18T19:48:08.820,8,37,159224,124080,73.0
2026-04-18T19:48:08.860,8,38,159294,124195,73.0
2026-04-18T19:48:08.900,8,39,159294,124195,73.0
2026-04-18T19:48:08.940,8,40,159294,124195,73.0
2026-04-18T19:48:08.980,8,41,159294,124195,73.0
2026-04-18T19:48:09.019,8,42,159190,124351,73.0
2026-04-18T19:48:09.060,8,43,159190,124351,73.0
2026-04-18T19:48:09.099,8,44,159190,124351,73.0
2026-04-18T19:48:09.139,8,45,159190,124351,73.0
2026-04-18T19:48:09.179,8,46,158644,124399,73.0
2026-04-18T19:48:09.219,8,47,158644,124399,73.0
2026-04-18T19:48:09.259,8,48,158644,124399,73.0
2026-04-18T19:48:09.299,8,49,158644,124399,73.0
2026-04-18T19:48:09.340,8,50,157897,124277,73.0
2026-04-18T19:48:09.380,8,51,157897,124277,73.0
2026-04-18T19:48:09.419,8,52,157897,124277,73.0
2026-04-18T19:48:09.459,8,53,157897,124277,73.0
2026-04-18T19:48:09.499,8,54,157575,123875,73.0
2026-04-18T19:48:09.540,8,55,157575,123875,73.0
2026-04-18T19:48:09.579,8,56,157575,123875,73.0
2026-04-18T19:48:09.619,8,57,157575,123875,73.0
2026-04-18T19:48:09.658,8,58,157686,123967,73.0
2026-04-18T19:48:09.698,8,59,157686,123967,73.0
2026-04-18T19:48:09.738,8,60,157686,123967,73.0
2026-04-18T19:48:09.779,8,61,157686,123967,73.0
2026-04-18T19:48:09.819,8,62,157933,124194,73.0
2026-04-18T19:48:09.859,8,63,157933,124194,73.0
2026-04-18T19:48:09.899,8,64,157933,124194,73.0
2026-04-18T19:48:09.939,8,65,157933,124194,73.0
2026-04-18T19:48:09.979,8,66,158296,124406,73.0
2026-04-18T19:48:10.018,8,67,158296,124406,73.0
2026-04-18T19:48:10.059,8,68,158296,124406,73.0
2026-04-18T19:48:10.098,8,69,158296,124406,73.0
2026-04-18T19:48:10.138,8,70,158842,124709,73.0
2026-04-18T19:48:10.178,8,71,158842,124709,73.0
2026-04-18T19:48:10.218,8,72,158842,124709,73.0
2026-04-18T19:48:10.258,8,73,158842,124709,73.0
2026-04-18T19:48:10.298,8,74,159282,124861,73.0
2026-04-18T19:48:10.339,8,75,159282,124861,73.0
2026-04-18T19:48:10.378,8,76,159282,124861,73.0
2026-04-18T19:48:10.418,8,77,159282,124861,73.0
2026-04-18T19:48:10.458,8,78,159659,124967,73.0
2026-04-18T19:48:10.498,8,79,159659,124967,73.0
2026-04-18T19:48:10.538,8,80,159659,124967,73.0
2026-04-18T19:48:10.578,8,81,159659,124967,73.0
2026-04-18T19:48:10.618,8,82,159923,125314,73.0
2026-04-18T19:48:10.658,8,83,159923,125314,73.0
2026-04-18T19:48:10.698,8,84,159923,125314,73.0
2026-04-18T19:48:10.737,8,85,159923,125314,73.0
2026-04-18T19:48:10.777,8,86,159968,125355,73.0
2026-04-18T19:48:10.817,8,87,159968,125355,73.0
2026-04-18T19:48:10.857,8,88,159968,125355,73.0
2026-04-18T19:48:10.897,8,89,159968,125355,73.0
2026-04-18T19:48:10.937,8,90,159946,125334,73.0
2026-04-18T19:48:10.978,8,91,159946,125334,73.0
2026-04-18T19:48:11.018,8,92,159946,125334,73.0
2026-04-18T19:48:11.057,8,93,159946,125334,73.0
2026-04-18T19:48:11.097,8,94,159884,125243,73.0
2026-04-18T19:48:11.137,8,95,159884,125243,73.0
2026-04-18T19:48:11.177,8,96,159884,125243,73.0
2026-04-18T19:48:11.217,8,97,159884,125243,73.0
2026-04-18T19:48:11.257,8,98,159880,125274,73.0
2026-04-18T19:48:11.297,8,99,159880,125274,73.0
2026-04-18T19:48:11.337,8,100,159880,125274,73.0
2026-04-18T19:48:11.377,8,101,159880,125274,73.0
2026-04-18T19:48:11.417,8,102,159888,125373,73.0
2026-04-18T19:48:11.457,8,103,159888,125373,73.0
2026-04-18T19:48:11.497,8,104,159888,125373,73.0
2026-04-18T19:48:11.537,8,105,159888,125373,73.0
2026-04-18T19:48:11.577,8,106,159851,125338,73.0
2026-04-18T19:48:11.617,8,107,159851,125338,73.0
2026-04-18T19:48:11.657,8,108,159851,125338,73.0
2026-04-18T19:48:11.697,8,109,159851,125338,73.0
2026-04-18T19:48:11.737,8,110,159908,125457,73.0
2026-04-18T19:48:11.777,8,111,159908,125457,73.0
2026-04-18T19:48:11.816,8,112,159908,125457,73.0
2026-04-18T19:48:11.856,8,113,159908,125457,73.0
2026-04-18T19:48:11.896,8,114,160030,125697,73.0
2026-04-18T19:48:11.936,8,115,160030,125697,73.0
2026-04-18T19:48:11.976,8,116,160030,125697,73.0
2026-04-18T19:48:12.016,8,117,160030,125697,73.0
2026-04-18T19:48:12.056,8,118,160150,125830,73.0
2026-04-18T19:48:12.096,8,119,160150,125830,73.0
2026-04-18T19:48:12.136,8,120,160150,125830,73.0
2026-04-18T19:48:12.176,8,121,160150,125830,73.0
2026-04-18T19:48:12.216,8,122,160528,126360,73.0
2026-04-18T19:48:12.256,8,123,160528,126360,73.0
2026-04-18T19:48:12.296,8,124,160528,126360,73.0
2026-04-18T19:48:12.335,8,125,160528,126360,73.0
2026-04-18T19:48:12.375,8,126,160659,126484,73.0
2026-04-18T19:48:12.415,8,127,160659,126484,73.0
2026-04-18T19:48:12.456,8,128,160659,126484,73.0
2026-04-18T19:48:12.496,8,129,160659,126484,73.0
2026-04-18T19:48:12.535,8,130,160725,126600,73.0
2026-04-18T19:48:12.576,8,131,160725,126600,73.0
2026-04-18T19:48:12.616,8,132,160725,126600,73.0
2026-04-18T19:48:12.656,8,133,160725,126600,73.0
2026-04-18T19:48:12.695,8,134,160791,126648,73.0
2026-04-18T19:48:12.735,8,135,160791,126648,73.0
2026-04-18T19:48:12.775,8,136,160791,126648,73.0
2026-04-18T19:48:12.815,8,137,160791,126648,73.0
2026-04-18T19:48:12.855,8,138,160842,126669,73.0
2026-04-18T19:48:12.896,8,139,160842,126669,73.0
2026-04-18T19:48:12.935,8,140,160842,126669,73.0
2026-04-18T19:48:12.976,8,141,160842,126669,73.0
2026-04-18T19:48:13.015,8,142,161015,126828,73.0
2026-04-18T19:48:13.055,8,143,161015,126828,73.0
2026-04-18T19:48:13.095,8,144,161015,126828,73.0
2026-04-18T19:48:13.135,8,145,161015,126828,73.0
2026-04-18T19:48:13.175,8,146,161136,127085,73.0
2026-04-18T19:48:13.215,8,147,161136,127085,73.0
2026-04-18T19:48:13.255,8,148,161136,127085,73.0
2026-04-18T19:48:13.295,8,149,161136,127085,73.0
2026-04-18T19:48:13.335,8,150,161155,127134,73.0
2026-04-18T19:48:13.375,8,151,161155,127134,73.0
2026-04-18T19:48:13.415,8,152,161155,127134,73.0
2026-04-18T19:48:13.455,8,153,161155,127134,73.0
2026-04-18T19:48:13.495,8,154,161011,126667,73.0
2026-04-18T19:48:13.535,8,155,161011,126667,73.0
2026-04-18T19:48:13.574,8,156,161011,126667,73.0
2026-04-18T19:48:13.615,8,157,161011,126667,73.0
2026-04-18T19:48:13.655,8,158,160838,126182,73.0
2026-04-18T19:48:13.695,8,159,160838,126182,73.0
2026-04-18T19:48:13.734,8,160,160838,126182,73.0
2026-04-18T19:48:13.775,8,161,160838,126182,73.0
2026-04-18T19:48:13.814,8,162,160682,125717,73.0
2026-04-18T19:48:13.854,8,163,160682,125717,73.0
2026-04-18T19:48:13.895,8,164,160682,125717,73.0
2026-04-18T19:48:13.934,8,165,160682,125717,73.0
2026-04-18T19:48:13.974,8,166,160638,125610,73.0
2026-04-18T19:48:14.014,8,167,160638,125610,73.0
2026-04-18T19:48:14.054,8,168,160638,125610,73.0
2026-04-18T19:48:14.094,8,169,160638,125610,73.0
2026-04-18T19:48:14.133,8,170,160573,125552,73.0
2026-04-18T19:48:14.173,8,171,160573,125552,73.0
2026-04-18T19:48:14.214,8,172,160573,125552,73.0
2026-04-18T19:48:14.254,8,173,160573,125552,73.0
2026-04-18T19:48:14.294,8,174,160575,125611,73.0
2026-04-18T19:48:14.333,8,175,160575,125611,73.0
2026-04-18T19:48:14.374,8,176,160575,125611,73.0
2026-04-18T19:48:14.414,8,177,160575,125611,73.0
2026-04-18T19:48:14.454,8,178,160592,125649,73.0
2026-04-18T19:48:14.494,8,179,160592,125649,73.0
2026-04-18T19:48:14.534,8,180,160592,125649,73.0
2026-04-18T19:48:14.573,8,181,160592,125649,73.0
2026-04-18T19:48:14.614,8,182,160668,125759,73.0
2026-04-18T19:48:14.654,8,183,160668,125759,73.0
2026-04-18T19:48:14.694,8,184,160668,125759,73.0
2026-04-18T19:48:14.733,8,185,160668,125759,73.0
2026-04-18T19:48:14.773,8,186,160778,126017,73.0
2026-04-18T19:48:14.814,8,187,160778,126017,73.0
2026-04-18T19:48:14.853,8,188,160778,126017,73.0
2026-04-18T19:48:14.894,8,189,160778,126017,73.0
2026-04-18T19:48:14.933,8,190,160824,126212,73.0
2026-04-18T19:48:14.973,8,191,160824,126212,73.0
2026-04-18T19:48:15.013,8,192,160824,126212,73.0
2026-04-18T19:48:15.053,8,193,160824,126212,73.0
2026-04-18T19:48:15.093,8,194,160828,126254,73.0
2026-04-18T19:48:15.133,8,195,160828,126254,73.0
2026-04-18T19:48:15.172,8,196,160828,126254,73.0
2026-04-18T19:48:15.212,8,197,160828,126254,73.0
2026-04-18T19:48:15.253,8,198,160785,126142,73.0
2026-04-18T19:48:15.293,8,199,160785,126142,73.0
2026-04-18T19:48:15.333,8,200,160785,126142,73.0
2026-04-18T19:48:15.372,8,201,160785,126142,73.0
2026-04-18T19:48:15.413,8,202,160779,126080,73.0
2026-04-18T19:48:15.453,8,203,160779,126080,73.0
2026-04-18T19:48:15.492,8,204,160779,126080,73.0
2026-04-18T19:48:15.533,8,205,160779,126080,73.0
2026-04-18T19:48:15.572,8,206,160829,126144,73.0
2026-04-18T19:48:15.612,8,207,160829,126144,73.0
2026-04-18T19:48:15.653,8,208,160829,126144,73.0
2026-04-18T19:48:15.693,8,209,160829,126144,73.0
2026-04-18T19:48:15.733,8,210,160861,126284,73.0
2026-04-18T19:48:15.772,8,211,160861,126284,73.0
2026-04-18T19:48:15.812,8,212,160861,126284,73.0
2026-04-18T19:48:15.852,8,213,160861,126284,73.0
2026-04-18T19:48:15.892,8,214,160831,126304,73.0
2026-04-18T19:48:15.931,8,215,160831,126304,73.0
2026-04-18T19:48:15.972,8,216,160831,126304,73.0
2026-04-18T19:48:16.012,8,217,160831,126304,73.0
2026-04-18T19:48:16.052,8,218,160727,126021,73.0
2026-04-18T19:48:16.092,8,219,160727,126021,73.0
2026-04-18T19:48:16.132,8,220,160727,126021,73.0
2026-04-18T19:48:16.172,8,221,160727,126021,73.0
2026-04-18T19:48:16.212,8,222,160606,125707,73.0
2026-04-18T19:48:16.252,8,223,160606,125707,73.0
2026-04-18T19:48:16.292,8,224,160606,125707,73.0
2026-04-18T19:48:16.331,8,225,160606,125707,73.0
2026-04-18T19:48:16.371,8,226,160535,125445,73.0
2026-04-18T19:48:16.411,8,227,160535,125445,73.0
2026-04-18T19:48:16.451,8,228,160535,125445,73.0
2026-04-18T19:48:16.492,8,229,160535,125445,73.0
2026-04-18T19:48:16.531,8,230,160534,125479,73.0
2026-04-18T19:48:16.572,8,231,160534,125479,73.0
2026-04-18T19:48:16.611,8,232,160534,125479,73.0
2026-04-18T19:48:16.652,8,233,160534,125479,73.0
2026-04-18T19:48:16.691,8,234,160459,125472,73.0
2026-04-18T19:48:16.731,8,235,160459,125472,73.0
2026-04-18T19:48:16.772,8,236,160459,125472,73.0
2026-04-18T19:48:16.811,8,237,160459,125472,73.0
2026-04-18T19:48:16.851,8,238,160460,125526,73.0
2026-04-18T19:48:16.892,8,239,160460,125526,73.0
2026-04-18T19:48:16.931,8,240,160460,125526,73.0
2026-04-18T19:48:16.971,8,241,160460,125526,73.0
2026-04-18T19:48:17.011,8,242,160455,125542,73.0
2026-04-18T19:48:17.051,8,243,160455,125542,73.0
2026-04-18T19:48:17.091,8,244,160455,125542,73.0
2026-04-18T19:48:17.131,8,245,160455,125542,73.0
2026-04-18T19:48:17.171,8,246,160477,125563,73.0
2026-04-18T19:48:17.210,8,247,160477,125563,73.0
2026-04-18T19:48:17.250,8,248,160477,125563,73.0
2026-04-18T19:48:17.290,8,249,160477,125563,73.0
2026-04-18T19:48:17.330,8,250,160559,125705,73.0
2026-04-18T19:48:21.725,9,0,166275,135065,71.0
2026-04-18T19:48:21.766,9,1,166275,135065,71.0
2026-04-18T19:48:21.805,9,2,168629,139860,71.0
2026-04-18T19:48:21.845,9,3,168629,139860,71.0
2026-04-18T19:48:21.885,9,4,168629,139860,71.0
2026-04-18T19:48:21.925,9,5,168629,139860,71.0
2026-04-18T19:48:21.965,9,6,168713,139873,71.0
2026-04-18T19:48:22.005,9,7,168713,139873,71.0
2026-04-18T19:48:22.045,9,8,168713,139873,71.0
2026-04-18T19:48:22.085,9,9,168713,139873,71.0
2026-04-18T19:48:22.125,9,10,169458,140948,71.0
2026-04-18T19:48:22.165,9,11,169458,140948,71.0
2026-04-18T19:48:22.205,9,12,169458,140948,71.0
2026-04-18T19:48:22.245,9,13,169458,140948,71.0
2026-04-18T19:48:22.285,9,14,169306,140108,71.0
2026-04-18T19:48:22.325,9,15,169306,140108,71.0
2026-04-18T19:48:22.365,9,16,169306,140108,71.0
2026-04-18T19:48:22.405,9,17,169306,140108,71.0
2026-04-18T19:48:22.444,9,18,168070,136896,71.0
2026-04-18T19:48:22.484,9,19,168070,136896,71.0
2026-04-18T19:48:22.525,9,20,168070,136896,71.0
2026-04-18T19:48:22.565,9,21,168070,136896,71.0
2026-04-18T19:48:22.605,9,22,165655,131938,71.0
2026-04-18T19:48:22.644,9,23,165655,131938,71.0
2026-04-18T19:48:22.684,9,24,165655,131938,71.0
2026-04-18T19:48:22.724,9,25,165655,131938,71.0
2026-04-18T19:48:22.764,9,26,163331,128883,71.0
2026-04-18T19:48:22.804,9,27,163331,128883,71.0
2026-04-18T19:48:22.844,9,28,163331,128883,71.0
2026-04-18T19:48:22.884,9,29,163331,128883,71.0
2026-04-18T19:48:22.924,9,30,161523,126653,71.0
2026-04-18T19:48:22.964,9,31,161523,126653,71.0
2026-04-18T19:48:23.004,9,32,161523,126653,71.0
2026-04-18T19:48:23.044,9,33,161523,126653,71.0
2026-04-18T19:48:23.084,9,34,160283,125163,71.0
2026-04-18T19:48:23.124,9,35,160283,125163,71.0
2026-04-18T19:48:23.164,9,36,160283,125163,71.0
2026-04-18T19:48:23.204,9,37,160283,125163,71.0
2026-04-18T19:48:23.244,9,38,160212,124887,71.0
2026-04-18T19:48:23.284,9,39,160212,124887,71.0
2026-04-18T19:48:23.324,9,40,160212,124887,71.0
2026-04-18T19:48:23.364,9,41,160212,124887,71.0
2026-04-18T19:48:23.403,9,42,160324,125074,71.0
2026-04-18T19:48:23.444,9,43,160324,125074,71.0
2026-04-18T19:48:23.483,9,44,160324,125074,71.0
2026-04-18T19:48:23.523,9,45,160324,125074,71.0
2026-04-18T19:48:23.563,9,46,160338,125147,71.0
2026-04-18T19:48:23.604,9,47,160338,125147,71.0
2026-04-18T19:48:23.643,9,48,160338,125147,71.0
2026-04-18T19:48:23.683,9,49,160338,125147,71.0
2026-04-18T19:48:23.723,9,50,160289,125116,71.0
2026-04-18T19:48:23.763,9,51,160289,125116,71.0
2026-04-18T19:48:23.803,9,52,160289,125116,71.0
2026-04-18T19:48:23.843,9,53,160289,125116,71.0
2026-04-18T19:48:23.883,9,54,160269,125070,71.0
2026-04-18T19:48:23.923,9,55,160269,125070,71.0
2026-04-18T19:48:23.964,9,56,160269,125070,71.0
2026-04-18T19:48:24.003,9,57,160269,125070,71.0
2026-04-18T19:48:24.043,9,58,160276,125033,71.0
2026-04-18T19:48:24.083,9,59,160276,125033,71.0
2026-04-18T19:48:24.123,9,60,160276,125033,71.0
2026-04-18T19:48:24.163,9,61,160276,125033,71.0
2026-04-18T19:48:24.203,9,62,160391,125243,71.0
2026-04-18T19:48:24.243,9,63,160391,125243,71.0
2026-04-18T19:48:24.283,9,64,160391,125243,71.0
2026-04-18T19:48:24.323,9,65,160391,125243,71.0
2026-04-18T19:48:24.363,9,66,160395,125339,71.0
2026-04-18T19:48:24.402,9,67,160395,125339,71.0
2026-04-18T19:48:24.442,9,68,160395,125339,71.0
2026-04-18T19:48:24.483,9,69,160395,125339,71.0
2026-04-18T19:48:24.523,9,70,160374,125352,71.0
2026-04-18T19:48:24.562,9,71,160374,125352,71.0
2026-04-18T19:48:24.603,9,72,160374,125352,71.0
2026-04-18T19:48:24.643,9,73,160374,125352,71.0
2026-04-18T19:48:24.682,9,74,160370,125333,71.0
2026-04-18T19:48:24.722,9,75,160370,125333,71.0
2026-04-18T19:48:24.762,9,76,160370,125333,71.0
2026-04-18T19:48:24.802,9,77,160370,125333,71.0
2026-04-18T19:48:24.842,9,78,160427,125403,71.0
2026-04-18T19:48:24.882,9,79,160427,125403,71.0
2026-04-18T19:48:24.922,9,80,160427,125403,71.0
2026-04-18T19:48:24.962,9,81,160427,125403,71.0
2026-04-18T19:48:25.002,9,82,160591,125783,71.0
2026-04-18T19:48:25.042,9,83,160591,125783,71.0
2026-04-18T19:48:25.082,9,84,160591,125783,71.0
2026-04-18T19:48:25.122,9,85,160591,125783,71.0
2026-04-18T19:48:25.162,9,86,160670,126006,71.0
2026-04-18T19:48:25.201,9,87,160670,126006,71.0
2026-04-18T19:48:25.241,9,88,160670,126006,71.0
2026-04-18T19:48:25.281,9,89,160670,126006,71.0
2026-04-18T19:48:25.321,9,90,160645,125958,71.0
2026-04-18T19:48:25.361,9,91,160645,125958,71.0
2026-04-18T19:48:25.402,9,92,160645,125958,71.0
2026-04-18T19:48:25.441,9,93,160645,125958,71.0
2026-04-18T19:48:25.481,9,94,160644,125925,71.0
2026-04-18T19:48:25.522,9,95,160644,125925,71.0
2026-04-18T19:48:25.562,9,96,160644,125925,71.0
2026-04-18T19:48:25.602,9,97,160644,125925,71.0
2026-04-18T19:48:25.641,9,98,160687,125929,71.0
2026-04-18T19:48:25.681,9,99,160687,125929,71.0
2026-04-18T19:48:25.722,9,100,160687,125929,71.0
2026-04-18T19:48:25.761,9,101,160687,125929,71.0
2026-04-18T19:48:25.801,9,102,160761,126057,71.0
2026-04-18T19:48:25.842,9,103,160761,126057,71.0
2026-04-18T19:48:25.881,9,104,160761,126057,71.0
2026-04-18T19:48:25.921,9,105,160761,126057,71.0
2026-04-18T19:48:25.961,9,106,160776,126178,71.0
2026-04-18T19:48:26.001,9,107,160776,126178,71.0
2026-04-18T19:48:26.041,9,108,160776,126178,71.0
2026-04-18T19:48:26.081,9,109,160776,126178,71.0
2026-04-18T19:48:26.121,9,110,160747,126055,71.0
2026-04-18T19:48:26.161,9,111,160747,126055,71.0
2026-04-18T19:48:26.201,9,112,160747,126055,71.0
2026-04-18T19:48:26.240,9,113,160747,126055,71.0
2026-04-18T19:48:26.280,9,114,160642,125742,71.0
2026-04-18T19:48:26.320,9,115,160642,125742,71.0
2026-04-18T19:48:26.360,9,116,160642,125742,71.0
2026-04-18T19:48:26.401,9,117,160642,125742,71.0
2026-04-18T19:48:26.440,9,118,160554,125458,71.0
2026-04-18T19:48:26.480,9,119,160554,125458,71.0
2026-04-18T19:48:26.521,9,120,160554,125458,71.0
2026-04-18T19:48:26.561,9,121,160554,125458,71.0
2026-04-18T19:48:26.600,9,122,160520,125358,71.0
2026-04-18T19:48:26.640,9,123,160520,125358,71.0
2026-04-18T19:48:26.680,9,124,160520,125358,71.0
2026-04-18T19:48:26.720,9,125,160520,125358,71.0
2026-04-18T19:48:26.760,9,126,160487,125345,71.0
2026-04-18T19:48:26.800,9,127,160487,125345,71.0
2026-04-18T19:48:26.840,9,128,160487,125345,71.0
2026-04-18T19:48:26.880,9,129,160487,125345,71.0
2026-04-18T19:48:26.920,9,130,160410,125294,71.0
2026-04-18T19:48:26.960,9,131,160410,125294,71.0
2026-04-18T19:48:27.000,9,132,160410,125294,71.0
2026-04-18T19:48:27.040,9,133,160410,125294,71.0
2026-04-18T19:48:27.080,9,134,160339,125227,71.0
2026-04-18T19:48:27.119,9,135,160339,125227,71.0
2026-04-18T19:48:27.160,9,136,160339,125227,71.0
2026-04-18T19:48:27.199,9,137,160339,125227,71.0
2026-04-18T19:48:27.240,9,138,160330,125244,71.0
2026-04-18T19:48:27.280,9,139,160330,125244,71.0
2026-04-18T19:48:27.319,9,140,160330,125244,71.0
2026-04-18T19:48:27.360,9,141,160330,125244,71.0
2026-04-18T19:48:27.399,9,142,160395,125383,71.0
2026-04-18T19:48:27.439,9,143,160395,125383,71.0
2026-04-18T19:48:27.479,9,144,160395,125383,71.0
2026-04-18T19:48:27.519,9,145,160395,125383,71.0
2026-04-18T19:48:27.559,9,146,160484,125692,71.0
2026-04-18T19:48:27.599,9,147,160484,125692,71.0
2026-04-18T19:48:27.639,9,148,160484,125692,71.0
2026-04-18T19:48:27.679,9,149,160484,125692,71.0
2026-04-18T19:48:27.719,9,150,160519,125865,71.0
2026-04-18T19:48:27.759,9,151,160519,125865,71.0
2026-04-18T19:48:27.799,9,152,160519,125865,71.0
2026-04-18T19:48:27.839,9,153,160519,125865,71.0
2026-04-18T19:48:27.879,9,154,160497,125827,71.0
2026-04-18T19:48:27.918,9,155,160497,125827,71.0
2026-04-18T19:48:27.959,9,156,160497,125827,71.0
2026-04-18T19:48:27.999,9,157,160497,125827,71.0
2026-04-18T19:48:28.039,9,158,160512,125846,71.0
2026-04-18T19:48:28.078,9,159,160512,125846,71.0
2026-04-18T19:48:28.119,9,160,160512,125846,71.0
2026-04-18T19:48:28.158,9,161,160512,125846,71.0
2026-04-18T19:48:28.199,9,162,160571,125883,71.0
2026-04-18T19:48:28.239,9,163,160571,125883,71.0
2026-04-18T19:48:28.278,9,164,160571,125883,71.0
2026-04-18T19:48:28.318,9,165,160571,125883,71.0
2026-04-18T19:48:28.358,9,166,160618,126047,71.0
2026-04-18T19:48:28.398,9,167,160618,126047,71.0
2026-04-18T19:48:28.438,9,168,160618,126047,71.0
2026-04-18T19:48:28.478,9,169,160618,126047,71.0
2026-04-18T19:48:28.518,9,170,160626,126103,71.0
2026-04-18T19:48:28.558,9,171,160626,126103,71.0
2026-04-18T19:48:28.598,9,172,160626,126103,71.0
2026-04-18T19:48:28.638,9,173,160626,126103,71.0
2026-04-18T19:48:28.678,9,174,160575,125906,71.0
2026-04-18T19:48:28.718,9,175,160575,125906,71.0
2026-04-18T19:48:28.758,9,176,160575,125906,71.0
2026-04-18T19:48:28.798,9,177,160575,125906,71.0
2026-04-18T19:48:28.838,9,178,160464,125610,71.0
2026-04-18T19:48:28.878,9,179,160464,125610,71.0
2026-04-18T19:48:28.918,9,180,160464,125610,71.0
2026-04-18T19:48:28.957,9,181,160464,125610,71.0
2026-04-18T19:48:28.998,9,182,160405,125409,71.0
2026-04-18T19:48:29.038,9,183,160405,125409,71.0
2026-04-18T19:48:29.077,9,184,160405,125409,71.0
2026-04-18T19:48:29.118,9,185,160405,125409,71.0
2026-04-18T19:48:29.157,9,186,160399,125379,71.0
2026-04-18T19:48:29.197,9,187,160399,125379,71.0
2026-04-18T19:48:29.237,9,188,160399,125379,71.0
2026-04-18T19:48:29.277,9,189,160399,125379,71.0
2026-04-18T19:48:29.317,9,190,160365,125463,71.0
2026-04-18T19:48:29.357,9,191,160365,125463,71.0
2026-04-18T19:48:29.397,9,192,160365,125463,71.0
2026-04-18T19:48:29.437,9,193,160365,125463,71.0
2026-04-18T19:48:29.477,9,194,160138,125305,71.0
2026-04-18T19:48:29.517,9,195,160138,125305,71.0
2026-04-18T19:48:29.557,9,196,160138,125305,71.0
2026-04-18T19:48:29.596,9,197,160138,125305,71.0
2026-04-18T19:48:29.636,9,198,159607,125475,71.0
2026-04-18T19:48:29.676,9,199,159607,125475,71.0
2026-04-18T19:48:29.717,9,200,159607,125475,71.0
2026-04-18T19:48:29.757,9,201,159607,125475,71.0
2026-04-18T19:48:29.796,9,202,159456,127610,71.0
2026-04-18T19:48:29.836,9,203,159456,127610,71.0
2026-04-18T19:48:29.876,9,204,159456,127610,71.0
2026-04-18T19:48:29.916,9,205,159456,127610,71.0
2026-04-18T19:48:29.957,9,206,160580,129823,71.0
2026-04-18T19:48:29.996,9,207,160580,129823,71.0
2026-04-18T19:48:30.037,9,208,160580,129823,71.0
2026-04-18T19:48:30.077,9,209,160580,129823,71.0
2026-04-18T19:48:30.116,9,210,160970,130492,71.0
2026-04-18T19:48:30.157,9,211,160970,130492,71.0
2026-04-18T19:48:30.196,9,212,160970,130492,71.0
2026-04-18T19:48:30.236,9,213,160970,130492,71.0
2026-04-18T19:48:30.276,9,214,161161,130954,71.0
2026-04-18T19:48:30.316,9,215,161161,130954,71.0
2026-04-18T19:48:30.356,9,216,161161,130954,71.0
2026-04-18T19:48:30.396,9,217,161161,130954,71.0
2026-04-18T19:48:30.436,9,218,160891,130146,71.0
2026-04-18T19:48:30.476,9,219,160891,130146,71.0
2026-04-18T19:48:30.516,9,220,160891,130146,71.0
2026-04-18T19:48:30.556,9,221,160891,130146,71.0
2026-04-18T19:48:30.596,9,222,160748,129933,71.0
2026-04-18T19:48:30.636,9,223,160748,129933,71.0
2026-04-18T19:48:30.676,9,224,160748,129933,71.0
2026-04-18T19:48:30.715,9,225,160748,129933,71.0
2026-04-18T19:48:30.755,9,226,160996,130361,71.0
2026-04-18T19:48:30.796,9,227,160996,130361,71.0
2026-04-18T19:48:30.836,9,228,160996,130361,71.0
2026-04-18T19:48:30.876,9,229,160996,130361,71.0
2026-04-18T19:48:30.915,9,230,161355,130980,71.0
2026-04-18T19:48:30.955,9,231,161355,130980,71.0
2026-04-18T19:48:30.995,9,232,161355,130980,71.0
2026-04-18T19:48:31.035,9,233,161355,130980,71.0
2026-04-18T19:48:31.075,9,234,161310,130936,71.0
2026-04-18T19:48:31.115,9,235,161310,130936,71.0
2026-04-18T19:48:31.155,9,236,161310,130936,71.0
2026-04-18T19:48:31.195,9,237,161310,130936,71.0
2026-04-18T19:48:31.234,9,238,160419,129359,71.0
2026-04-18T19:48:31.274,9,239,160419,129359,71.0
2026-04-18T19:48:31.315,9,240,160419,129359,71.0
2026-04-18T19:48:31.355,9,241,160419,129359,71.0
2026-04-18T19:48:31.395,9,242,159972,128368,71.0
2026-04-18T19:48:31.435,9,243,159972,128368,71.0
2026-04-18T19:48:31.475,9,244,159972,128368,71.0
2026-04-18T19:48:31.515,9,245,159972,128368,71.0
2026-04-18T19:48:31.555,9,246,159668,127737,71.0
2026-04-18T19:48:31.594,9,247,159668,127737,71.0
2026-04-18T19:48:31.634,9,248,159668,127737,71.0
2026-04-18T19:48:31.674,9,249,159668,127737,71.0
2026-04-18T19:48:31.714,9,250,159637,127670,71.0
2026-04-18T19:48:38.986,10,0,167185,136286,73.0
2026-04-18T19:48:39.027,10,1,167185,136286,73.0
2026-04-18T19:48:39.066,10,2,167101,136083,73.0
2026-04-18T19:48:39.106,10,3,167101,136083,73.0
2026-04-18T19:48:39.146,10,4,167101,136083,73.0
2026-04-18T19:48:39.187,10,5,167101,136083,73.0
2026-04-18T19:48:39.227,10,6,165497,132746,73.0
2026-04-18T19:48:39.266,10,7,165497,132746,73.0
2026-04-18T19:48:39.306,10,8,165497,132746,73.0
2026-04-18T19:48:39.346,10,9,165497,132746,73.0
2026-04-18T19:48:39.386,10,10,163663,129657,73.0
2026-04-18T19:48:39.426,10,11,163663,129657,73.0
2026-04-18T19:48:39.465,10,12,163663,129657,73.0
2026-04-18T19:48:39.505,10,13,163663,129657,73.0
2026-04-18T19:48:39.546,10,14,160396,125870,73.0
2026-04-18T19:48:39.585,10,15,160396,125870,73.0
2026-04-18T19:48:39.626,10,16,160396,125870,73.0
2026-04-18T19:48:39.665,10,17,160396,125870,73.0
2026-04-18T19:48:39.706,10,18,159426,124237,73.0
2026-04-18T19:48:39.746,10,19,159426,124237,73.0
2026-04-18T19:48:39.785,10,20,159426,124237,73.0
2026-04-18T19:48:39.826,10,21,159426,124237,73.0
2026-04-18T19:48:39.865,10,22,159173,123929,73.0
2026-04-18T19:48:39.905,10,23,159173,123929,73.0
2026-04-18T19:48:39.945,10,24,159173,123929,73.0
2026-04-18T19:48:39.985,10,25,159173,123929,73.0
2026-04-18T19:48:40.025,10,26,159021,123778,73.0
2026-04-18T19:48:40.065,10,27,159021,123778,73.0
2026-04-18T19:48:40.105,10,28,159021,123778,73.0
2026-04-18T19:48:40.145,10,29,159021,123778,73.0
2026-04-18T19:48:40.185,10,30,159023,123876,73.0
2026-04-18T19:48:40.225,10,31,159023,123876,73.0
2026-04-18T19:48:40.265,10,32,159023,123876,73.0
2026-04-18T19:48:40.305,10,33,159023,123876,73.0
2026-04-18T19:48:40.345,10,34,159121,124071,73.0
2026-04-18T19:48:40.384,10,35,159121,124071,73.0
2026-04-18T19:48:40.424,10,36,159121,124071,73.0
2026-04-18T19:48:40.464,10,37,159121,124071,73.0
2026-04-18T19:48:40.504,10,38,159134,124101,73.0
2026-04-18T19:48:40.545,10,39,159134,124101,73.0
2026-04-18T19:48:40.584,10,40,159134,124101,73.0
2026-04-18T19:48:40.624,10,41,159134,124101,73.0
2026-04-18T19:48:40.664,10,42,159171,124172,73.0
2026-04-18T19:48:40.704,10,43,159171,124172,73.0
2026-04-18T19:48:40.744,10,44,159171,124172,73.0
2026-04-18T19:48:40.784,10,45,159171,124172,73.0
2026-04-18T19:48:40.824,10,46,159255,124295,73.0
2026-04-18T19:48:40.864,10,47,159255,124295,73.0
2026-04-18T19:48:40.904,10,48,159255,124295,73.0
2026-04-18T19:48:40.944,10,49,159255,124295,73.0
2026-04-18T19:48:40.984,10,50,159410,124638,73.0
2026-04-18T19:48:41.024,10,51,159410,124638,73.0
2026-04-18T19:48:41.064,10,52,159410,124638,73.0
2026-04-18T19:48:41.104,10,53,159410,124638,73.0
2026-04-18T19:48:41.144,10,54,159552,124930,73.0
2026-04-18T19:48:41.184,10,55,159552,124930,73.0
2026-04-18T19:48:41.224,10,56,159552,124930,73.0
2026-04-18T19:48:41.264,10,57,159552,124930,73.0
2026-04-18T19:48:41.304,10,58,159629,125026,73.0
2026-04-18T19:48:41.344,10,59,159629,125026,73.0
2026-04-18T19:48:41.384,10,60,159629,125026,73.0
2026-04-18T19:48:41.423,10,61,159629,125026,73.0
2026-04-18T19:48:41.463,10,62,159721,125120,73.0
2026-04-18T19:48:41.503,10,63,159721,125120,73.0
2026-04-18T19:48:41.543,10,64,159721,125120,73.0
2026-04-18T19:48:41.584,10,65,159721,125120,73.0
2026-04-18T19:48:41.623,10,66,159836,125267,73.0
2026-04-18T19:48:41.663,10,67,159836,125267,73.0
2026-04-18T19:48:41.703,10,68,159836,125267,73.0
2026-04-18T19:48:41.743,10,69,159836,125267,73.0
2026-04-18T19:48:41.783,10,70,159964,125493,73.0
2026-04-18T19:48:41.823,10,71,159964,125493,73.0
2026-04-18T19:48:41.863,10,72,159964,125493,73.0
2026-04-18T19:48:41.903,10,73,159964,125493,73.0
2026-04-18T19:48:41.942,10,74,159857,125214,73.0
2026-04-18T19:48:41.983,10,75,159857,125214,73.0
2026-04-18T19:48:42.022,10,76,159857,125214,73.0
2026-04-18T19:48:42.063,10,77,159857,125214,73.0
2026-04-18T19:48:42.103,10,78,159636,124730,73.0
2026-04-18T19:48:42.143,10,79,159636,124730,73.0
2026-04-18T19:48:42.182,10,80,159636,124730,73.0
2026-04-18T19:48:42.222,10,81,159636,124730,73.0
2026-04-18T19:48:42.262,10,82,159486,124435,73.0
2026-04-18T19:48:42.302,10,83,159486,124435,73.0
2026-04-18T19:48:42.342,10,84,159486,124435,73.0
2026-04-18T19:48:42.382,10,85,159486,124435,73.0
2026-04-18T19:48:42.422,10,86,159433,124291,73.0
2026-04-18T19:48:42.462,10,87,159433,124291,73.0
2026-04-18T19:48:42.502,10,88,159433,124291,73.0
2026-04-18T19:48:42.542,10,89,159433,124291,73.0
2026-04-18T19:48:42.582,10,90,159411,124297,73.0
2026-04-18T19:48:42.622,10,91,159411,124297,73.0
2026-04-18T19:48:42.662,10,92,159411,124297,73.0
2026-04-18T19:48:42.702,10,93,159411,124297,73.0
2026-04-18T19:48:42.743,10,94,159380,124308,73.0
2026-04-18T19:48:42.781,10,95,159380,124308,73.0
2026-04-18T19:48:42.822,10,96,159380,124308,73.0
2026-04-18T19:48:42.861,10,97,159380,124308,73.0
2026-04-18T19:48:42.901,10,98,159334,124268,73.0
2026-04-18T19:48:42.942,10,99,159334,124268,73.0
2026-04-18T19:48:42.982,10,100,159334,124268,73.0
2026-04-18T19:48:43.022,10,101,159334,124268,73.0
2026-04-18T19:48:43.061,10,102,159329,124288,73.0
2026-04-18T19:48:43.101,10,103,159329,124288,73.0
2026-04-18T19:48:43.142,10,104,159329,124288,73.0
2026-04-18T19:48:43.182,10,105,159329,124288,73.0
2026-04-18T19:48:43.221,10,106,159408,124441,73.0
2026-04-18T19:48:43.261,10,107,159408,124441,73.0
2026-04-18T19:48:43.302,10,108,159408,124441,73.0
2026-04-18T19:48:43.341,10,109,159408,124441,73.0
2026-04-18T19:48:43.381,10,110,159514,124737,73.0
2026-04-18T19:48:43.421,10,111,159514,124737,73.0
2026-04-18T19:48:43.461,10,112,159514,124737,73.0
2026-04-18T19:48:43.502,10,113,159514,124737,73.0
2026-04-18T19:48:43.541,10,114,159588,124964,73.0
2026-04-18T19:48:43.581,10,115,159588,124964,73.0
2026-04-18T19:48:43.621,10,116,159588,124964,73.0
2026-04-18T19:48:43.661,10,117,159588,124964,73.0
2026-04-18T19:48:43.701,10,118,159624,125021,73.0
2026-04-18T19:48:43.741,10,119,159624,125021,73.0
2026-04-18T19:48:43.781,10,120,159624,125021,73.0
2026-04-18T19:48:43.821,10,121,159624,125021,73.0
2026-04-18T19:48:43.861,10,122,159764,125328,73.0
2026-04-18T19:48:43.901,10,123,159764,125328,73.0
2026-04-18T19:48:43.941,10,124,159764,125328,73.0
2026-04-18T19:48:43.980,10,125,159764,125328,73.0
2026-04-18T19:48:44.020,10,126,159880,125535,73.0
2026-04-18T19:48:44.060,10,127,159880,125535,73.0
2026-04-18T19:48:44.100,10,128,159880,125535,73.0
2026-04-18T19:48:44.140,10,129,159880,125535,73.0
2026-04-18T19:48:44.180,10,130,160000,125837,73.0
2026-04-18T19:48:44.220,10,131,160000,125837,73.0
2026-04-18T19:48:44.260,10,132,160000,125837,73.0
2026-04-18T19:48:44.300,10,133,160000,125837,73.0
2026-04-18T19:48:44.340,10,134,160122,125996,73.0
2026-04-18T19:48:44.380,10,135,160122,125996,73.0
2026-04-18T19:48:44.420,10,136,160122,125996,73.0
2026-04-18T19:48:44.460,10,137,160122,125996,73.0
2026-04-18T19:48:44.500,10,138,160112,125880,73.0
2026-04-18T19:48:44.540,10,139,160112,125880,73.0
2026-04-18T19:48:44.580,10,140,160112,125880,73.0
2026-04-18T19:48:44.619,10,141,160112,125880,73.0
2026-04-18T19:48:44.660,10,142,160024,125482,73.0
2026-04-18T19:48:44.700,10,143,160024,125482,73.0
2026-04-18T19:48:44.740,10,144,160024,125482,73.0
2026-04-18T19:48:44.780,10,145,160024,125482,73.0
2026-04-18T19:48:44.820,10,146,159966,125287,73.0
2026-04-18T19:48:44.859,10,147,159966,125287,73.0
2026-04-18T19:48:44.899,10,148,159966,125287,73.0
2026-04-18T19:48:44.939,10,149,159966,125287,73.0
2026-04-18T19:48:44.979,10,150,159865,125108,73.0
2026-04-18T19:48:45.019,10,151,159865,125108,73.0
2026-04-18T19:48:45.059,10,152,159865,125108,73.0
2026-04-18T19:48:45.099,10,153,159865,125108,73.0
2026-04-18T19:48:45.139,10,154,159721,124828,73.0
2026-04-18T19:48:45.179,10,155,159721,124828,73.0
2026-04-18T19:48:45.219,10,156,159721,124828,73.0
2026-04-18T19:48:45.259,10,157,159721,124828,73.0
2026-04-18T19:48:45.299,10,158,159615,124588,73.0
2026-04-18T19:48:45.339,10,159,159615,124588,73.0
2026-04-18T19:48:45.379,10,160,159615,124588,73.0
2026-04-18T19:48:45.419,10,161,159615,124588,73.0
2026-04-18T19:48:45.459,10,162,159627,124583,73.0
2026-04-18T19:48:45.498,10,163,159627,124583,73.0
2026-04-18T19:48:45.539,10,164,159627,124583,73.0
2026-04-18T19:48:45.579,10,165,159627,124583,73.0
2026-04-18T19:48:45.618,10,166,159754,124878,73.0
2026-04-18T19:48:45.658,10,167,159754,124878,73.0
2026-04-18T19:48:45.698,10,168,159754,124878,73.0
2026-04-18T19:48:45.739,10,169,159754,124878,73.0
2026-04-18T19:48:45.778,10,170,159860,125155,73.0
2026-04-18T19:48:45.818,10,171,159860,125155,73.0
2026-04-18T19:48:45.858,10,172,159860,125155,73.0
2026-04-18T19:48:45.898,10,173,159860,125155,73.0
2026-04-18T19:48:45.938,10,174,159906,125254,73.0
2026-04-18T19:48:45.978,10,175,159906,125254,73.0
2026-04-18T19:48:46.018,10,176,159906,125254,73.0
2026-04-18T19:48:46.057,10,177,159906,125254,73.0
2026-04-18T19:48:46.098,10,178,159949,125300,73.0
2026-04-18T19:48:46.138,10,179,159949,125300,73.0
2026-04-18T19:48:46.177,10,180,159949,125300,73.0
2026-04-18T19:48:46.218,10,181,159949,125300,73.0
2026-04-18T19:48:46.257,10,182,160020,125396,73.0
2026-04-18T19:48:46.298,10,183,160020,125396,73.0
2026-04-18T19:48:46.337,10,184,160020,125396,73.0
2026-04-18T19:48:46.377,10,185,160020,125396,73.0
2026-04-18T19:48:46.417,10,186,160062,125524,73.0
2026-04-18T19:48:46.457,10,187,160062,125524,73.0
2026-04-18T19:48:46.497,10,188,160062,125524,73.0
2026-04-18T19:48:46.537,10,189,160062,125524,73.0
2026-04-18T19:48:46.577,10,190,160133,125680,73.0
2026-04-18T19:48:46.617,10,191,160133,125680,73.0
2026-04-18T19:48:46.657,10,192,160133,125680,73.0
2026-04-18T19:48:46.697,10,193,160133,125680,73.0
2026-04-18T19:48:46.737,10,194,160126,125593,73.0
2026-04-18T19:48:46.777,10,195,160126,125593,73.0
2026-04-18T19:48:46.817,10,196,160126,125593,73.0
2026-04-18T19:48:46.857,10,197,160126,125593,73.0
2026-04-18T19:48:46.897,10,198,160111,125415,73.0
2026-04-18T19:48:46.937,10,199,160111,125415,73.0
2026-04-18T19:48:46.976,10,200,160111,125415,73.0
2026-04-18T19:48:47.017,10,201,160111,125415,73.0
2026-04-18T19:48:47.057,10,202,160060,125192,73.0
2026-04-18T19:48:47.097,10,203,160060,125192,73.0
2026-04-18T19:48:47.137,10,204,160060,125192,73.0
2026-04-18T19:48:47.177,10,205,160060,125192,73.0
