timestamp,window,sample,ir_raw,red_raw,true_hr
2026-04-18T19:35:06.241,1,0,204612,172191,76.0
2026-04-18T19:35:06.251,1,1,204612,172191,76.0
2026-04-18T19:35:06.261,1,2,204612,172191,76.0
2026-04-18T19:35:06.271,1,3,204612,172191,76.0
2026-04-18T19:35:06.281,1,4,204506,171948,76.0
2026-04-18T19:35:06.291,1,5,204506,171948,76.0
2026-04-18T19:35:06.302,1,6,204506,171948,76.0
2026-04-18T19:35:06.311,1,7,204506,171948,76.0
2026-04-18T19:35:06.321,1,8,204517,171909,76.0
2026-04-18T19:35:06.331,1,9,204517,171909,76.0
2026-04-18T19:35:06.341,1,10,204517,171909,76.0
2026-04-18T19:35:06.351,1,11,204517,171909,76.0
2026-04-18T19:35:06.361,1,12,204640,172165,76.0
2026-04-18T19:35:06.371,1,13,204640,172165,76.0
2026-04-18T19:35:06.381,1,14,204640,172165,76.0
2026-04-18T19:35:06.391,1,15,204640,172165,76.0
2026-04-18T19:35:06.401,1,16,204563,171956,76.0
2026-04-18T19:35:06.412,1,17,204563,171956,76.0
2026-04-18T19:35:06.421,1,18,204563,171956,76.0
2026-04-18T19:35:06.432,1,19,204563,171956,76.0
2026-04-18T19:35:06.441,1,20,204428,171593,76.0
2026-04-18T19:35:06.451,1,21,204428,171593,76.0
2026-04-18T19:35:06.461,1,22,204428,171593,76.0
2026-04-18T19:35:06.471,1,23,204428,171593,76.0
2026-04-18T19:35:06.481,1,24,204413,171453,76.0
2026-04-18T19:35:06.491,1,25,204413,171453,76.0
2026-04-18T19:35:06.501,1,26,204413,171453,76.0
2026-04-18T19:35:06.511,1,27,204413,171453,76.0
2026-04-18T19:35:06.521,1,28,204349,171208,76.0
2026-04-18T19:35:06.531,1,29,204349,171208,76.0
2026-04-18T19:35:06.541,1,30,204349,171208,76.0
2026-04-18T19:35:06.551,1,31,204349,171208,76.0
2026-04-18T19:35:06.561,1,32,204407,171240,76.0
2026-04-18T19:35:06.570,1,33,204407,171240,76.0
2026-04-18T19:35:06.581,1,34,204407,171240,76.0
2026-04-18T19:35:06.590,1,35,204407,171240,76.0
2026-04-18T19:35:06.601,1,36,204410,171243,76.0
2026-04-18T19:35:06.611,1,37,204410,171243,76.0
2026-04-18T19:35:06.621,1,38,204410,171243,76.0
2026-04-18T19:35:06.631,1,39,204410,171243,76.0
2026-04-18T19:35:06.641,1,40,204426,171142,76.0
2026-04-18T19:35:06.651,1,41,204426,171142,76.0
2026-04-18T19:35:06.661,1,42,204426,171142,76.0
2026-04-18T19:35:06.670,1,43,204426,171142,76.0
2026-04-18T19:35:06.680,1,44,204518,171207,76.0
2026-04-18T19:35:06.691,1,45,204518,171207,76.0
2026-04-18T19:35:06.701,1,46,204518,171207,76.0
2026-04-18T19:35:06.710,1,47,204518,171207,76.0
2026-04-18T19:35:06.721,1,48,204534,171185,76.0
2026-04-18T19:35:06.730,1,49,204534,171185,76.0
2026-04-18T19:35:06.740,1,50,204534,171185,76.0
2026-04-18T19:35:06.750,1,51,204534,171185,76.0
2026-04-18T19:35:06.760,1,52,204400,170860,76.0
2026-04-18T19:35:06.770,1,53,204400,170860,76.0
2026-04-18T19:35:06.780,1,54,204400,170860,76.0
2026-04-18T19:35:06.790,1,55,204400,170860,76.0
2026-04-18T19:35:06.801,1,56,204506,171042,76.0
2026-04-18T19:35:06.811,1,57,204506,171042,76.0
2026-04-18T19:35:06.821,1,58,204506,171042,76.0
2026-04-18T19:35:06.830,1,59,204506,171042,76.0
2026-04-18T19:35:06.841,1,60,204667,171409,76.0
2026-04-18T19:35:06.851,1,61,204667,171409,76.0
2026-04-18T19:35:06.861,1,62,204667,171409,76.0
2026-04-18T19:35:06.870,1,63,204667,171409,76.0
2026-04-18T19:35:06.880,1,64,204850,171877,76.0
2026-04-18T19:35:06.890,1,65,204850,171877,76.0
2026-04-18T19:35:06.901,1,66,204850,171877,76.0
2026-04-18T19:35:06.910,1,67,204850,171877,76.0
2026-04-18T19:35:06.921,1,68,205118,172449,76.0
2026-04-18T19:35:06.931,1,69,205118,172449,76.0
2026-04-18T19:35:06.941,1,70,205118,172449,76.0
2026-04-18T19:35:06.951,1,71,205118,172449,76.0
2026-04-18T19:35:06.961,1,72,205010,172155,76.0
2026-04-18T19:35:06.970,1,73,205010,172155,76.0
2026-04-18T19:35:06.980,1,74,205010,172155,76.0
2026-04-18T19:35:06.990,1,75,205010,172155,76.0
2026-04-18T19:35:07.000,1,76,204936,171939,76.0
2026-04-18T19:35:07.010,1,77,204936,171939,76.0
2026-04-18T19:35:07.020,1,78,204936,171939,76.0
2026-04-18T19:35:07.030,1,79,204936,171939,76.0
2026-04-18T19:35:07.040,1,80,204708,171380,76.0
2026-04-18T19:35:07.051,1,81,204708,171380,76.0
2026-04-18T19:35:07.060,1,82,204708,171380,76.0
2026-04-18T19:35:07.071,1,83,204708,171380,76.0
2026-04-18T19:35:07.080,1,84,204352,170667,76.0
2026-04-18T19:35:07.090,1,85,204352,170667,76.0
2026-04-18T19:35:07.100,1,86,204352,170667,76.0
2026-04-18T19:35:07.110,1,87,204352,170667,76.0
2026-04-18T19:35:07.120,1,88,204152,170191,76.0
2026-04-18T19:35:07.131,1,89,204152,170191,76.0
2026-04-18T19:35:07.140,1,90,204152,170191,76.0
2026-04-18T19:35:07.150,1,91,204152,170191,76.0
2026-04-18T19:35:07.160,1,92,203994,169879,76.0
2026-04-18T19:35:07.170,1,93,203994,169879,76.0
2026-04-18T19:35:07.180,1,94,203994,169879,76.0
2026-04-18T19:35:07.190,1,95,203994,169879,76.0
2026-04-18T19:35:07.200,1,96,203777,169515,76.0
2026-04-18T19:35:07.210,1,97,203777,169515,76.0
2026-04-18T19:35:07.220,1,98,203777,169515,76.0
2026-04-18T19:35:07.230,1,99,203777,169515,76.0
2026-04-18T19:35:07.240,1,100,203469,168998,76.0
2026-04-18T19:35:07.250,1,101,203469,168998,76.0
2026-04-18T19:35:07.260,1,102,203469,168998,76.0
2026-04-18T19:35:07.270,1,103,203469,168998,76.0
2026-04-18T19:35:07.281,1,104,203313,168711,76.0
2026-04-18T19:35:07.290,1,105,203313,168711,76.0
2026-04-18T19:35:07.300,1,106,203313,168711,76.0
2026-04-18T19:35:07.310,1,107,203313,168711,76.0
2026-04-18T19:35:07.320,1,108,203051,168254,76.0
2026-04-18T19:35:07.330,1,109,203051,168254,76.0
2026-04-18T19:35:07.340,1,110,203051,168254,76.0
2026-04-18T19:35:07.350,1,111,203051,168254,76.0
2026-04-18T19:35:07.360,1,112,202761,167737,76.0
2026-04-18T19:35:07.370,1,113,202761,167737,76.0
2026-04-18T19:35:07.380,1,114,202761,167737,76.0
2026-04-18T19:35:07.390,1,115,202761,167737,76.0
2026-04-18T19:35:07.400,1,116,202442,167197,76.0
2026-04-18T19:35:07.410,1,117,202442,167197,76.0
2026-04-18T19:35:07.420,1,118,202442,167197,76.0
2026-04-18T19:35:07.430,1,119,202442,167197,76.0
2026-04-18T19:35:07.440,1,120,202400,167067,76.0
2026-04-18T19:35:07.450,1,121,202400,167067,76.0
2026-04-18T19:35:07.460,1,122,202400,167067,76.0
2026-04-18T19:35:07.470,1,123,202400,167067,76.0
2026-04-18T19:35:07.480,1,124,202299,166965,76.0
2026-04-18T19:35:07.490,1,125,202299,166965,76.0
2026-04-18T19:35:07.500,1,126,202299,166965,76.0
2026-04-18T19:35:07.509,1,127,202299,166965,76.0
2026-04-18T19:35:07.520,1,128,202290,167025,76.0
2026-04-18T19:35:07.530,1,129,202290,167025,76.0
2026-04-18T19:35:07.540,1,130,202290,167025,76.0
2026-04-18T19:35:07.550,1,131,202290,167025,76.0
2026-04-18T19:35:07.560,1,132,202276,167149,76.0
2026-04-18T19:35:07.570,1,133,202276,167149,76.0
2026-04-18T19:35:07.580,1,134,202276,167149,76.0
2026-04-18T19:35:07.590,1,135,202276,167149,76.0
2026-04-18T19:35:07.600,1,136,202113,167020,76.0
2026-04-18T19:35:07.609,1,137,202113,167020,76.0
2026-04-18T19:35:07.619,1,138,202113,167020,76.0
2026-04-18T19:35:07.629,1,139,202113,167020,76.0
2026-04-18T19:35:07.639,1,140,202019,167022,76.0
2026-04-18T19:35:07.650,1,141,202019,167022,76.0
2026-04-18T19:35:07.660,1,142,202019,167022,76.0
2026-04-18T19:35:07.669,1,143,202019,167022,76.0
2026-04-18T19:35:07.679,1,144,201902,166921,76.0
2026-04-18T19:35:07.689,1,145,201902,166921,76.0
2026-04-18T19:35:07.699,1,146,201902,166921,76.0
2026-04-18T19:35:07.709,1,147,201902,166921,76.0
2026-04-18T19:35:07.719,1,148,201759,166772,76.0
2026-04-18T19:35:07.729,1,149,201759,166772,76.0
2026-04-18T19:35:07.739,1,150,201759,166772,76.0
2026-04-18T19:35:07.750,1,151,201759,166772,76.0
2026-04-18T19:35:07.759,1,152,201451,166300,76.0
2026-04-18T19:35:07.770,1,153,201451,166300,76.0
2026-04-18T19:35:07.779,1,154,201451,166300,76.0
2026-04-18T19:35:07.789,1,155,201451,166300,76.0
2026-04-18T19:35:07.800,1,156,201252,165980,76.0
2026-04-18T19:35:07.810,1,157,201252,165980,76.0
2026-04-18T19:35:07.819,1,158,201252,165980,76.0
2026-04-18T19:35:07.829,1,159,201252,165980,76.0
2026-04-18T19:35:07.840,1,160,201074,165731,76.0
2026-04-18T19:35:07.849,1,161,201074,165731,76.0
2026-04-18T19:35:07.859,1,162,201074,165731,76.0
2026-04-18T19:35:07.869,1,163,201074,165731,76.0
2026-04-18T19:35:07.880,1,164,200888,165409,76.0
2026-04-18T19:35:07.889,1,165,200888,165409,76.0
2026-04-18T19:35:07.899,1,166,200888,165409,76.0
2026-04-18T19:35:07.909,1,167,200888,165409,76.0
2026-04-18T19:35:07.920,1,168,200783,165241,76.0
2026-04-18T19:35:07.929,1,169,200783,165241,76.0
2026-04-18T19:35:07.939,1,170,200783,165241,76.0
2026-04-18T19:35:07.949,1,171,200783,165241,76.0
2026-04-18T19:35:07.959,1,172,200714,165119,76.0
2026-04-18T19:35:07.969,1,173,200714,165119,76.0
2026-04-18T19:35:07.979,1,174,200714,165119,76.0
2026-04-18T19:35:07.989,1,175,200714,165119,76.0
2026-04-18T19:35:07.999,1,176,200502,164725,76.0
2026-04-18T19:35:08.009,1,177,200502,164725,76.0
2026-04-18T19:35:08.019,1,178,200502,164725,76.0
2026-04-18T19:35:08.029,1,179,200502,164725,76.0
2026-04-18T19:35:08.039,1,180,200365,164429,76.0
2026-04-18T19:35:08.050,1,181,200365,164429,76.0
2026-04-18T19:35:08.059,1,182,200365,164429,76.0
2026-04-18T19:35:08.069,1,183,200365,164429,76.0
2026-04-18T19:35:08.079,1,184,200252,164203,76.0
2026-04-18T19:35:08.089,1,185,200252,164203,76.0
2026-04-18T19:35:08.099,1,186,200252,164203,76.0
2026-04-18T19:35:08.109,1,187,200252,164203,76.0
2026-04-18T19:35:08.118,1,188,200258,164063,76.0
2026-04-18T19:35:08.128,1,189,200258,164063,76.0
2026-04-18T19:35:08.138,1,190,200258,164063,76.0
2026-04-18T19:35:08.148,1,191,200258,164063,76.0
2026-04-18T19:35:08.159,1,192,200202,163973,76.0
2026-04-18T19:35:08.169,1,193,200202,163973,76.0
2026-04-18T19:35:08.179,1,194,200202,163973,76.0
2026-04-18T19:35:08.189,1,195,200202,163973,76.0
2026-04-18T19:35:08.199,1,196,200326,164176,76.0
2026-04-18T19:35:08.209,1,197,200326,164176,76.0
2026-04-18T19:35:08.219,1,198,200326,164176,76.0
2026-04-18T19:35:08.229,1,199,200326,164176,76.0
2026-04-18T19:35:08.239,1,200,200253,163951,76.0
2026-04-18T19:35:08.249,1,201,200253,163951,76.0
2026-04-18T19:35:08.259,1,202,200253,163951,76.0
2026-04-18T19:35:08.269,1,203,200253,163951,76.0
2026-04-18T19:35:08.279,1,204,200352,164040,76.0
2026-04-18T19:35:08.289,1,205,200352,164040,76.0
2026-04-18T19:35:08.299,1,206,200352,164040,76.0
2026-04-18T19:35:08.309,1,207,200352,164040,76.0
2026-04-18T19:35:08.319,1,208,200429,164151,76.0
2026-04-18T19:35:08.329,1,209,200429,164151,76.0
2026-04-18T19:35:08.338,1,210,200429,164151,76.0
2026-04-18T19:35:08.349,1,211,200429,164151,76.0
2026-04-18T19:35:08.359,1,212,200554,164260,76.0
2026-04-18T19:35:08.369,1,213,200554,164260,76.0
2026-04-18T19:35:08.378,1,214,200554,164260,76.0
2026-04-18T19:35:08.389,1,215,200554,164260,76.0
2026-04-18T19:35:08.399,1,216,200686,164545,76.0
2026-04-18T19:35:08.408,1,217,200686,164545,76.0
2026-04-18T19:35:08.418,1,218,200686,164545,76.0
2026-04-18T19:35:08.429,1,219,200686,164545,76.0
2026-04-18T19:35:08.438,1,220,200889,164853,76.0
2026-04-18T19:35:08.449,1,221,200889,164853,76.0
2026-04-18T19:35:08.458,1,222,200889,164853,76.0
2026-04-18T19:35:08.469,1,223,200889,164853,76.0
2026-04-18T19:35:08.478,1,224,201137,165249,76.0
2026-04-18T19:35:08.489,1,225,201137,165249,76.0
2026-04-18T19:35:08.499,1,226,201137,165249,76.0
2026-04-18T19:35:08.508,1,227,201137,165249,76.0
2026-04-18T19:35:08.518,1,228,201417,165672,76.0
2026-04-18T19:35:08.528,1,229,201417,165672,76.0
2026-04-18T19:35:08.538,1,230,201417,165672,76.0
2026-04-18T19:35:08.549,1,231,201417,165672,76.0
2026-04-18T19:35:08.558,1,232,201497,165818,76.0
2026-04-18T19:35:08.568,1,233,201497,165818,76.0
2026-04-18T19:35:08.578,1,234,201497,165818,76.0
2026-04-18T19:35:08.589,1,235,201497,165818,76.0
2026-04-18T19:35:08.598,1,236,201606,166043,76.0
2026-04-18T19:35:08.608,1,237,201606,166043,76.0
2026-04-18T19:35:08.618,1,238,201606,166043,76.0
2026-04-18T19:35:08.628,1,239,201606,166043,76.0
2026-04-18T19:35:08.638,1,240,201708,166187,76.0
2026-04-18T19:35:08.648,1,241,201708,166187,76.0
2026-04-18T19:35:08.658,1,242,201708,166187,76.0
2026-04-18T19:35:08.668,1,243,201708,166187,76.0
2026-04-18T19:35:08.678,1,244,201883,166448,76.0
2026-04-18T19:35:08.688,1,245,201883,166448,76.0
2026-04-18T19:35:08.698,1,246,201883,166448,76.0
2026-04-18T19:35:08.708,1,247,201883,166448,76.0
2026-04-18T19:35:08.718,1,248,201994,166632,76.0
2026-04-18T19:35:08.728,1,249,201994,166632,76.0
2026-04-18T19:35:08.738,1,250,201994,166632,76.0
2026-04-18T19:35:08.748,1,251,201994,166632,76.0
2026-04-18T19:35:08.758,1,252,202120,166882,76.0
2026-04-18T19:35:08.768,1,253,202120,166882,76.0
2026-04-18T19:35:08.778,1,254,202120,166882,76.0
2026-04-18T19:35:08.789,1,255,202120,166882,76.0
2026-04-18T19:35:08.798,1,256,202358,167280,76.0
2026-04-18T19:35:08.808,1,257,202358,167280,76.0
2026-04-18T19:35:08.818,1,258,202358,167280,76.0
2026-04-18T19:35:08.828,1,259,202358,167280,76.0
2026-04-18T19:35:08.838,1,260,202530,167585,76.0
2026-04-18T19:35:08.848,1,261,202530,167585,76.0
2026-04-18T19:35:08.858,1,262,202530,167585,76.0
2026-04-18T19:35:08.868,1,263,202530,167585,76.0
2026-04-18T19:35:08.878,1,264,202711,167830,76.0
2026-04-18T19:35:08.887,1,265,202711,167830,76.0
2026-04-18T19:35:08.897,1,266,202711,167830,76.0
2026-04-18T19:35:08.907,1,267,202711,167830,76.0
2026-04-18T19:35:08.918,1,268,202835,168048,76.0
2026-04-18T19:35:08.928,1,269,202835,168048,76.0
2026-04-18T19:35:08.938,1,270,202835,168048,76.0
2026-04-18T19:35:08.948,1,271,202835,168048,76.0
2026-04-18T19:35:08.958,1,272,203031,168299,76.0
2026-04-18T19:35:08.968,1,273,203031,168299,76.0
2026-04-18T19:35:08.978,1,274,203031,168299,76.0
2026-04-18T19:35:08.988,1,275,203031,168299,76.0
2026-04-18T19:35:08.998,1,276,203329,168793,76.0
2026-04-18T19:35:09.008,1,277,203329,168793,76.0
2026-04-18T19:35:09.018,1,278,203329,168793,76.0
2026-04-18T19:35:09.028,1,279,203329,168793,76.0
2026-04-18T19:35:09.038,1,280,203691,169384,76.0
2026-04-18T19:35:09.048,1,281,203691,169384,76.0
2026-04-18T19:35:09.058,1,282,203691,169384,76.0
2026-04-18T19:35:09.068,1,283,203691,169384,76.0
2026-04-18T19:35:09.078,1,284,204044,170072,76.0
2026-04-18T19:35:09.088,1,285,204044,170072,76.0
2026-04-18T19:35:09.098,1,286,204044,170072,76.0
2026-04-18T19:35:09.108,1,287,204044,170072,76.0
2026-04-18T19:35:09.118,1,288,204277,170542,76.0
2026-04-18T19:35:09.128,1,289,204277,170542,76.0
2026-04-18T19:35:09.137,1,290,204277,170542,76.0
2026-04-18T19:35:09.148,1,291,204277,170542,76.0
2026-04-18T19:35:09.158,1,292,204461,170950,76.0
2026-04-18T19:35:09.168,1,293,204461,170950,76.0
2026-04-18T19:35:09.178,1,294,204461,170950,76.0
2026-04-18T19:35:09.188,1,295,204461,170950,76.0
2026-04-18T19:35:09.198,1,296,204674,171405,76.0
2026-04-18T19:35:09.208,1,297,204674,171405,76.0
2026-04-18T19:35:09.218,1,298,204674,171405,76.0
2026-04-18T19:35:09.228,1,299,204674,171405,76.0
2026-04-18T19:35:09.237,1,300,204817,171631,76.0
2026-04-18T19:35:09.248,1,301,204817,171631,76.0
2026-04-18T19:35:09.258,1,302,204817,171631,76.0
2026-04-18T19:35:09.268,1,303,204817,171631,76.0
2026-04-18T19:35:09.278,1,304,204948,171882,76.0
2026-04-18T19:35:09.288,1,305,204948,171882,76.0
2026-04-18T19:35:09.298,1,306,204948,171882,76.0
2026-04-18T19:35:09.308,1,307,204948,171882,76.0
2026-04-18T19:35:09.318,1,308,205015,172030,76.0
2026-04-18T19:35:09.327,1,309,205015,172030,76.0
2026-04-18T19:35:09.338,1,310,205015,172030,76.0
2026-04-18T19:35:09.348,1,311,205015,172030,76.0
2026-04-18T19:35:09.358,1,312,205048,172139,76.0
2026-04-18T19:35:09.367,1,313,205048,172139,76.0
2026-04-18T19:35:09.378,1,314,205048,172139,76.0
2026-04-18T19:35:09.387,1,315,205048,172139,76.0
2026-04-18T19:35:09.397,1,316,204961,172004,76.0
2026-04-18T19:35:09.407,1,317,204961,172004,76.0
2026-04-18T19:35:09.418,1,318,204961,172004,76.0
2026-04-18T19:35:09.427,1,319,204961,172004,76.0
2026-04-18T19:35:09.437,1,320,204916,171890,76.0
2026-04-18T19:35:09.447,1,321,204916,171890,76.0
2026-04-18T19:35:09.457,1,322,204916,171890,76.0
2026-04-18T19:35:09.468,1,323,204916,171890,76.0
2026-04-18T19:35:09.477,1,324,204977,172082,76.0
2026-04-18T19:35:09.488,1,325,204977,172082,76.0
2026-04-18T19:35:09.497,1,326,204977,172082,76.0
2026-04-18T19:35:09.507,1,327,204977,172082,76.0
2026-04-18T19:35:09.518,1,328,204944,172004,76.0
2026-04-18T19:35:09.527,1,329,204944,172004,76.0
2026-04-18T19:35:09.537,1,330,204944,172004,76.0
2026-04-18T19:35:09.547,1,331,204944,172004,76.0
2026-04-18T19:35:09.557,1,332,204859,171894,76.0
2026-04-18T19:35:09.567,1,333,204859,171894,76.0
2026-04-18T19:35:09.577,1,334,204859,171894,76.0
2026-04-18T19:35:09.587,1,335,204859,171894,76.0
2026-04-18T19:35:09.597,1,336,204800,171734,76.0
2026-04-18T19:35:09.607,1,337,204800,171734,76.0
2026-04-18T19:35:09.617,1,338,204800,171734,76.0
2026-04-18T19:35:09.627,1,339,204800,171734,76.0
2026-04-18T19:35:09.637,1,340,204641,171344,76.0
2026-04-18T19:35:09.647,1,341,204641,171344,76.0
2026-04-18T19:35:09.657,1,342,204641,171344,76.0
2026-04-18T19:35:09.667,1,343,204641,171344,76.0
2026-04-18T19:35:09.677,1,344,204618,171251,76.0
2026-04-18T19:35:09.687,1,345,204618,171251,76.0
2026-04-18T19:35:09.697,1,346,204618,171251,76.0
2026-04-18T19:35:09.707,1,347,204618,171251,76.0
2026-04-18T19:35:09.716,1,348,204645,171275,76.0
2026-04-18T19:35:09.727,1,349,204645,171275,76.0
2026-04-18T19:35:09.736,1,350,204645,171275,76.0
2026-04-18T19:35:09.746,1,351,204645,171275,76.0
2026-04-18T19:35:09.756,1,352,204963,171830,76.0
2026-04-18T19:35:09.766,1,353,204963,171830,76.0
2026-04-18T19:35:09.776,1,354,204963,171830,76.0
2026-04-18T19:35:09.787,1,355,204963,171830,76.0
2026-04-18T19:35:09.797,1,356,204970,171834,76.0
2026-04-18T19:35:09.807,1,357,204970,171834,76.0
2026-04-18T19:35:09.817,1,358,204970,171834,76.0
2026-04-18T19:35:09.827,1,359,204970,171834,76.0
2026-04-18T19:35:09.837,1,360,205139,172234,76.0
2026-04-18T19:35:09.847,1,361,205139,172234,76.0
2026-04-18T19:35:09.857,1,362,205139,172234,76.0
2026-04-18T19:35:09.867,1,363,205139,172234,76.0
2026-04-18T19:35:09.877,1,364,205279,172519,76.0
2026-04-18T19:35:09.886,1,365,205279,172519,76.0
2026-04-18T19:35:09.897,1,366,205279,172519,76.0
2026-04-18T19:35:09.907,1,367,205279,172519,76.0
2026-04-18T19:35:09.917,1,368,205310,172608,76.0
2026-04-18T19:35:09.927,1,369,205310,172608,76.0
2026-04-18T19:35:09.937,1,370,205310,172608,76.0
2026-04-18T19:35:09.947,1,371,205310,172608,76.0
2026-04-18T19:35:09.957,1,372,205433,172954,76.0
2026-04-18T19:35:09.967,1,373,205433,172954,76.0
2026-04-18T19:35:09.976,1,374,205433,172954,76.0
2026-04-18T19:35:09.986,1,375,205433,172954,76.0
2026-04-18T19:35:09.996,1,376,205447,173002,76.0
2026-04-18T19:35:10.007,1,377,205447,173002,76.0
2026-04-18T19:35:10.017,1,378,205447,173002,76.0
2026-04-18T19:35:10.026,1,379,205447,173002,76.0
2026-04-18T19:35:10.036,1,380,205543,173146,76.0
2026-04-18T19:35:10.046,1,381,205543,173146,76.0
2026-04-18T19:35:10.056,1,382,205543,173146,76.0
2026-04-18T19:35:10.066,1,383,205543,173146,76.0
2026-04-18T19:35:10.076,1,384,205446,173019,76.0
2026-04-18T19:35:10.087,1,385,205446,173019,76.0
2026-04-18T19:35:10.097,1,386,205446,173019,76.0
2026-04-18T19:35:10.107,1,387,205446,173019,76.0
2026-04-18T19:35:10.117,1,388,205337,172810,76.0
2026-04-18T19:35:10.127,1,389,205337,172810,76.0
2026-04-18T19:35:10.136,1,390,205337,172810,76.0
2026-04-18T19:35:10.146,1,391,205337,172810,76.0
2026-04-18T19:35:10.156,1,392,205311,172747,76.0
2026-04-18T19:35:10.166,1,393,205311,172747,76.0
2026-04-18T19:35:10.176,1,394,205311,172747,76.0
2026-04-18T19:35:10.186,1,395,205311,172747,76.0
2026-04-18T19:35:10.197,1,396,205267,172698,76.0
2026-04-18T19:35:10.207,1,397,205267,172698,76.0
2026-04-18T19:35:10.216,1,398,205267,172698,76.0
2026-04-18T19:35:10.226,1,399,205267,172698,76.0
2026-04-18T19:35:10.236,1,400,205148,172460,76.0
2026-04-18T19:35:10.246,1,401,205148,172460,76.0
2026-04-18T19:35:10.256,1,402,205148,172460,76.0
2026-04-18T19:35:10.266,1,403,205148,172460,76.0
2026-04-18T19:35:10.276,1,404,205005,172136,76.0
2026-04-18T19:35:10.286,1,405,205005,172136,76.0
2026-04-18T19:35:10.296,1,406,205005,172136,76.0
2026-04-18T19:35:10.306,1,407,205005,172136,76.0
2026-04-18T19:35:10.316,1,408,204954,172052,76.0
2026-04-18T19:35:10.326,1,409,204954,172052,76.0
2026-04-18T19:35:10.336,1,410,204954,172052,76.0
2026-04-18T19:35:10.346,1,411,204954,172052,76.0
2026-04-18T19:35:10.356,1,412,204959,172099,76.0
2026-04-18T19:35:10.366,1,413,204959,172099,76.0
2026-04-18T19:35:10.376,1,414,204959,172099,76.0
2026-04-18T19:35:10.386,1,415,204959,172099,76.0
2026-04-18T19:35:10.396,1,416,204876,171896,76.0
2026-04-18T19:35:10.406,1,417,204876,171896,76.0
2026-04-18T19:35:10.416,1,418,204876,171896,76.0
2026-04-18T19:35:10.426,1,419,204876,171896,76.0
2026-04-18T19:35:10.436,1,420,204835,171771,76.0
2026-04-18T19:35:10.446,1,421,204835,171771,76.0
2026-04-18T19:35:10.456,1,422,204835,171771,76.0
2026-04-18T19:35:10.466,1,423,204835,171771,76.0
2026-04-18T19:35:10.475,1,424,204886,171808,76.0
2026-04-18T19:35:10.486,1,425,204886,171808,76.0
2026-04-18T19:35:10.496,1,426,204886,171808,76.0
2026-04-18T19:35:10.506,1,427,204886,171808,76.0
2026-04-18T19:35:10.516,1,428,205033,172055,76.0
2026-04-18T19:35:10.526,1,429,205033,172055,76.0
2026-04-18T19:35:10.536,1,430,205033,172055,76.0
2026-04-18T19:35:10.546,1,431,205033,172055,76.0
2026-04-18T19:35:10.556,1,432,205126,172179,76.0
2026-04-18T19:35:10.566,1,433,205126,172179,76.0
2026-04-18T19:35:10.576,1,434,205126,172179,76.0
2026-04-18T19:35:10.586,1,435,205126,172179,76.0
2026-04-18T19:35:10.596,1,436,205208,172336,76.0
2026-04-18T19:35:10.606,1,437,205208,172336,76.0
2026-04-18T19:35:10.616,1,438,205208,172336,76.0
2026-04-18T19:35:10.626,1,439,205208,172336,76.0
2026-04-18T19:35:10.636,1,440,205363,172717,76.0
2026-04-18T19:35:10.646,1,441,205363,172717,76.0
2026-04-18T19:35:10.656,1,442,205363,172717,76.0
2026-04-18T19:35:10.666,1,443,205363,172717,76.0
2026-04-18T19:35:10.675,1,444,205384,172736,76.0
2026-04-18T19:35:10.686,1,445,205384,172736,76.0
2026-04-18T19:35:10.696,1,446,205384,172736,76.0
2026-04-18T19:35:10.706,1,447,205384,172736,76.0
2026-04-18T19:35:10.715,1,448,205411,172937,76.0
2026-04-18T19:35:10.725,1,449,205411,172937,76.0
2026-04-18T19:35:10.736,1,450,205411,172937,76.0
2026-04-18T19:35:10.745,1,451,205411,172937,76.0
2026-04-18T19:35:10.755,1,452,205476,173049,76.0
2026-04-18T19:35:10.765,1,453,205476,173049,76.0
2026-04-18T19:35:10.775,1,454,205476,173049,76.0
2026-04-18T19:35:10.785,1,455,205476,173049,76.0
2026-04-18T19:35:10.796,1,456,205624,173271,76.0
2026-04-18T19:35:10.805,1,457,205624,173271,76.0
2026-04-18T19:35:10.816,1,458,205624,173271,76.0
2026-04-18T19:35:10.825,1,459,205624,173271,76.0
2026-04-18T19:35:10.836,1,460,205563,173163,76.0
2026-04-18T19:35:10.845,1,461,205563,173163,76.0
2026-04-18T19:35:10.856,1,462,205563,173163,76.0
2026-04-18T19:35:10.865,1,463,205563,173163,76.0
2026-04-18T19:35:10.875,1,464,205510,173071,76.0
2026-04-18T19:35:10.886,1,465,205510,173071,76.0
2026-04-18T19:35:10.896,1,466,205510,173071,76.0
2026-04-18T19:35:10.906,1,467,205510,173071,76.0
2026-04-18T19:35:10.915,1,468,205348,172779,76.0
2026-04-18T19:35:10.925,1,469,205348,172779,76.0
2026-04-18T19:35:10.935,1,470,205348,172779,76.0
2026-04-18T19:35:10.945,1,471,205348,172779,76.0
2026-04-18T19:35:10.955,1,472,205275,172625,76.0
2026-04-18T19:35:10.966,1,473,205275,172625,76.0
2026-04-18T19:35:10.975,1,474,205275,172625,76.0
2026-04-18T19:35:10.985,1,475,205275,172625,76.0
2026-04-18T19:35:10.996,1,476,205204,172511,76.0
2026-04-18T19:35:11.005,1,477,205204,172511,76.0
2026-04-18T19:35:11.015,1,478,205204,172511,76.0
2026-04-18T19:35:11.025,1,479,205204,172511,76.0
2026-04-18T19:35:11.035,1,480,205196,172499,76.0
2026-04-18T19:35:11.045,1,481,205196,172499,76.0
2026-04-18T19:35:11.055,1,482,205196,172499,76.0
2026-04-18T19:35:11.065,1,483,205196,172499,76.0
2026-04-18T19:35:11.075,1,484,205101,172331,76.0
2026-04-18T19:35:11.085,1,485,205101,172331,76.0
2026-04-18T19:35:11.094,1,486,205101,172331,76.0
2026-04-18T19:35:11.105,1,487,205101,172331,76.0
2026-04-18T19:35:11.115,1,488,205112,172315,76.0
2026-04-18T19:35:11.124,1,489,205112,172315,76.0
2026-04-18T19:35:11.134,1,490,205112,172315,76.0
2026-04-18T19:35:11.144,1,491,205112,172315,76.0
2026-04-18T19:35:11.154,1,492,205063,172227,76.0
2026-04-18T19:35:11.164,1,493,205063,172227,76.0
2026-04-18T19:35:11.175,1,494,205063,172227,76.0
2026-04-18T19:35:11.185,1,495,205063,172227,76.0
2026-04-18T19:35:11.195,1,496,205043,172107,76.0
2026-04-18T19:35:11.205,1,497,205043,172107,76.0
2026-04-18T19:35:11.215,1,498,205043,172107,76.0
2026-04-18T19:35:11.225,1,499,205043,172107,76.0
2026-04-18T19:35:11.235,1,500,204993,171991,76.0
2026-04-18T19:35:11.245,1,501,204993,171991,76.0
2026-04-18T19:35:11.255,1,502,204993,171991,76.0
2026-04-18T19:35:11.265,1,503,204993,171991,76.0
2026-04-18T19:35:11.275,1,504,205078,172115,76.0
2026-04-18T19:35:11.285,1,505,205078,172115,76.0
2026-04-18T19:35:11.295,1,506,205078,172115,76.0
2026-04-18T19:35:11.305,1,507,205078,172115,76.0
2026-04-18T19:35:11.315,1,508,205286,172498,76.0
2026-04-18T19:35:11.325,1,509,205286,172498,76.0
2026-04-18T19:35:11.335,1,510,205286,172498,76.0
2026-04-18T19:35:11.345,1,511,205286,172498,76.0
2026-04-18T19:35:11.355,1,512,205365,172605,76.0
2026-04-18T19:35:11.365,1,513,205365,172605,76.0
2026-04-18T19:35:11.375,1,514,205365,172605,76.0
2026-04-18T19:35:11.385,1,515,205365,172605,76.0
2026-04-18T19:35:11.395,1,516,205471,172890,76.0
2026-04-18T19:35:11.405,1,517,205471,172890,76.0
2026-04-18T19:35:11.415,1,518,205471,172890,76.0
2026-04-18T19:35:11.424,1,519,205471,172890,76.0
2026-04-18T19:35:11.435,1,520,205522,172987,76.0
2026-04-18T19:35:11.445,1,521,205522,172987,76.0
2026-04-18T19:35:11.454,1,522,205522,172987,76.0
2026-04-18T19:35:11.464,1,523,205522,172987,76.0
2026-04-18T19:35:11.474,1,524,205551,173071,76.0
2026-04-18T19:35:11.484,1,525,205551,173071,76.0
2026-04-18T19:35:11.494,1,526,205551,173071,76.0
2026-04-18T19:35:11.504,1,527,205551,173071,76.0
2026-04-18T19:35:11.514,1,528,205624,173295,76.0
2026-04-18T19:35:11.525,1,529,205624,173295,76.0
2026-04-18T19:35:11.535,1,530,205624,173295,76.0
2026-04-18T19:35:11.544,1,531,205624,173295,76.0
2026-04-18T19:35:11.555,1,532,205738,173536,76.0
2026-04-18T19:35:11.564,1,533,205738,173536,76.0
2026-04-18T19:35:11.575,1,534,205738,173536,76.0
2026-04-18T19:35:11.584,1,535,205738,173536,76.0
2026-04-18T19:35:11.594,1,536,205761,173523,76.0
2026-04-18T19:35:11.604,1,537,205761,173523,76.0
2026-04-18T19:35:11.615,1,538,205761,173523,76.0
2026-04-18T19:35:11.624,1,539,205761,173523,76.0
2026-04-18T19:35:11.634,1,540,205652,173341,76.0
2026-04-18T19:35:11.644,1,541,205652,173341,76.0
2026-04-18T19:35:11.655,1,542,205652,173341,76.0
2026-04-18T19:35:11.664,1,543,205652,173341,76.0
2026-04-18T19:35:11.674,1,544,205537,173163,76.0
2026-04-18T19:35:11.684,1,545,205537,173163,76.0
2026-04-18T19:35:11.694,1,546,205537,173163,76.0
2026-04-18T19:35:11.704,1,547,205537,173163,76.0
2026-04-18T19:35:11.714,1,548,205468,173015,76.0
2026-04-18T19:35:11.724,1,549,205468,173015,76.0
2026-04-18T19:35:11.734,1,550,205468,173015,76.0
2026-04-18T19:35:11.744,1,551,205468,173015,76.0
2026-04-18T19:35:11.754,1,552,205393,172890,76.0
2026-04-18T19:35:11.764,1,553,205393,172890,76.0
2026-04-18T19:35:11.774,1,554,205393,172890,76.0
2026-04-18T19:35:11.784,1,555,205393,172890,76.0
2026-04-18T19:35:11.794,1,556,205348,172808,76.0
2026-04-18T19:35:11.803,1,557,205348,172808,76.0
2026-04-18T19:35:11.814,1,558,205348,172808,76.0
2026-04-18T19:35:11.823,1,559,205348,172808,76.0
2026-04-18T19:35:11.833,1,560,205291,172683,76.0
2026-04-18T19:35:11.844,1,561,205291,172683,76.0
2026-04-18T19:35:11.854,1,562,205291,172683,76.0
2026-04-18T19:35:11.864,1,563,205291,172683,76.0
2026-04-18T19:35:11.874,1,564,205236,172599,76.0
2026-04-18T19:35:11.884,1,565,205236,172599,76.0
2026-04-18T19:35:11.894,1,566,205236,172599,76.0
2026-04-18T19:35:11.904,1,567,205236,172599,76.0
2026-04-18T19:35:11.914,1,568,205217,172514,76.0
2026-04-18T19:35:11.924,1,569,205217,172514,76.0
2026-04-18T19:35:11.934,1,570,205217,172514,76.0
2026-04-18T19:35:11.944,1,571,205217,172514,76.0
2026-04-18T19:35:11.954,1,572,205085,172197,76.0
2026-04-18T19:35:11.964,1,573,205085,172197,76.0
2026-04-18T19:35:11.973,1,574,205085,172197,76.0
2026-04-18T19:35:11.984,1,575,205085,172197,76.0
2026-04-18T19:35:11.994,1,576,205083,172142,76.0
2026-04-18T19:35:12.004,1,577,205083,172142,76.0
2026-04-18T19:35:12.014,1,578,205083,172142,76.0
2026-04-18T19:35:12.024,1,579,205083,172142,76.0
2026-04-18T19:35:12.034,1,580,205140,172192,76.0
2026-04-18T19:35:12.044,1,581,205140,172192,76.0
2026-04-18T19:35:12.053,1,582,205140,172192,76.0
2026-04-18T19:35:12.063,1,583,205140,172192,76.0
2026-04-18T19:35:12.074,1,584,205356,172593,76.0
2026-04-18T19:35:12.084,1,585,205356,172593,76.0
2026-04-18T19:35:12.093,1,586,205356,172593,76.0
2026-04-18T19:35:12.104,1,587,205356,172593,76.0
2026-04-18T19:35:12.113,1,588,205377,172629,76.0
2026-04-18T19:35:12.124,1,589,205377,172629,76.0
2026-04-18T19:35:12.133,1,590,205377,172629,76.0
2026-04-18T19:35:12.144,1,591,205377,172629,76.0
2026-04-18T19:35:12.153,1,592,205479,172873,76.0
2026-04-18T19:35:12.164,1,593,205479,172873,76.0
2026-04-18T19:35:12.173,1,594,205479,172873,76.0
2026-04-18T19:35:12.183,1,595,205479,172873,76.0
2026-04-18T19:35:12.193,1,596,205615,173156,76.0
2026-04-18T19:35:12.203,1,597,205615,173156,76.0
2026-04-18T19:35:12.213,1,598,205615,173156,76.0
2026-04-18T19:35:12.224,1,599,205615,173156,76.0
2026-04-18T19:35:12.233,1,600,205599,173186,76.0
2026-04-18T19:35:12.243,1,601,205599,173186,76.0
2026-04-18T19:35:12.253,1,602,205599,173186,76.0
2026-04-18T19:35:12.263,1,603,205599,173186,76.0
2026-04-18T19:35:12.273,1,604,205668,173389,76.0
2026-04-18T19:35:12.283,1,605,205668,173389,76.0
2026-04-18T19:35:12.293,1,606,205668,173389,76.0
2026-04-18T19:35:12.303,1,607,205668,173389,76.0
2026-04-18T19:35:12.313,1,608,205710,173485,76.0
2026-04-18T19:35:12.323,1,609,205710,173485,76.0
2026-04-18T19:35:12.333,1,610,205710,173485,76.0
2026-04-18T19:35:12.343,1,611,205710,173485,76.0
2026-04-18T19:35:12.353,1,612,205757,173508,76.0
2026-04-18T19:35:12.363,1,613,205757,173508,76.0
2026-04-18T19:35:12.373,1,614,205757,173508,76.0
2026-04-18T19:35:12.383,1,615,205757,173508,76.0
2026-04-18T19:35:12.393,1,616,205669,173335,76.0
2026-04-18T19:35:12.403,1,617,205669,173335,76.0
2026-04-18T19:35:12.413,1,618,205669,173335,76.0
2026-04-18T19:35:12.423,1,619,205669,173335,76.0
2026-04-18T19:35:12.433,1,620,205558,173180,76.0
2026-04-18T19:35:12.443,1,621,205558,173180,76.0
2026-04-18T19:35:12.453,1,622,205558,173180,76.0
2026-04-18T19:35:12.463,1,623,205558,173180,76.0
2026-04-18T19:35:12.473,1,624,205452,172969,76.0
2026-04-18T19:35:12.483,1,625,205452,172969,76.0
2026-04-18T19:35:12.493,1,626,205452,172969,76.0
2026-04-18T19:35:12.503,1,627,205452,172969,76.0
2026-04-18T19:35:12.513,1,628,205389,172847,76.0
2026-04-18T19:35:12.523,1,629,205389,172847,76.0
2026-04-18T19:35:12.532,1,630,205389,172847,76.0
2026-04-18T19:35:12.543,1,631,205389,172847,76.0
2026-04-18T19:35:12.553,1,632,205344,172706,76.0
2026-04-18T19:35:12.563,1,633,205344,172706,76.0
2026-04-18T19:35:12.573,1,634,205344,172706,76.0
2026-04-18T19:35:12.583,1,635,205344,172706,76.0
2026-04-18T19:35:12.593,1,636,205195,172385,76.0
2026-04-18T19:35:12.603,1,637,205195,172385,76.0
2026-04-18T19:35:12.613,1,638,205195,172385,76.0
2026-04-18T19:35:12.623,1,639,205195,172385,76.0
2026-04-18T19:35:12.633,1,640,204962,171867,76.0
2026-04-18T19:35:12.643,1,641,204962,171867,76.0
2026-04-18T19:35:12.653,1,642,204962,171867,76.0
2026-04-18T19:35:12.663,1,643,204962,171867,76.0
2026-04-18T19:35:12.673,1,644,204748,171367,76.0
2026-04-18T19:35:12.683,1,645,204748,171367,76.0
2026-04-18T19:35:12.693,1,646,204748,171367,76.0
2026-04-18T19:35:12.703,1,647,204748,171367,76.0
2026-04-18T19:35:12.713,1,648,204506,170789,76.0
2026-04-18T19:35:12.723,1,649,204506,170789,76.0
2026-04-18T19:35:12.733,1,650,204506,170789,76.0
2026-04-18T19:35:12.743,1,651,204506,170789,76.0
2026-04-18T19:35:12.753,1,652,204354,170368,76.0
2026-04-18T19:35:12.763,1,653,204354,170368,76.0
2026-04-18T19:35:12.773,1,654,204354,170368,76.0
2026-04-18T19:35:12.783,1,655,204354,170368,76.0
2026-04-18T19:35:12.793,1,656,204216,170011,76.0
2026-04-18T19:35:12.803,1,657,204216,170011,76.0
2026-04-18T19:35:12.812,1,658,204216,170011,76.0
2026-04-18T19:35:12.822,1,659,204216,170011,76.0
2026-04-18T19:35:12.832,1,660,204159,169883,76.0
2026-04-18T19:35:12.842,1,661,204159,169883,76.0
2026-04-18T19:35:12.852,1,662,204159,169883,76.0
2026-04-18T19:35:12.863,1,663,204159,169883,76.0
2026-04-18T19:35:12.873,1,664,203977,169507,76.0
2026-04-18T19:35:12.883,1,665,203977,169507,76.0
2026-04-18T19:35:12.892,1,666,203977,169507,76.0
2026-04-18T19:35:12.903,1,667,203977,169507,76.0
2026-04-18T19:35:12.913,1,668,203886,169351,76.0
2026-04-18T19:35:12.923,1,669,203886,169351,76.0
2026-04-18T19:35:12.933,1,670,203886,169351,76.0
2026-04-18T19:35:12.943,1,671,203886,169351,76.0
2026-04-18T19:35:12.953,1,672,203780,169238,76.0
2026-04-18T19:35:12.963,1,673,203780,169238,76.0
2026-04-18T19:35:12.972,1,674,203780,169238,76.0
2026-04-18T19:35:12.982,1,675,203780,169238,76.0
2026-04-18T19:35:12.992,1,676,203565,168880,76.0
2026-04-18T19:35:13.002,1,677,203565,168880,76.0
2026-04-18T19:35:13.013,1,678,203565,168880,76.0
2026-04-18T19:35:13.022,1,679,203565,168880,76.0
2026-04-18T19:35:13.033,1,680,203399,168649,76.0
2026-04-18T19:35:13.043,1,681,203399,168649,76.0
2026-04-18T19:35:13.052,1,682,203399,168649,76.0
2026-04-18T19:35:13.062,1,683,203399,168649,76.0
2026-04-18T19:35:13.072,1,684,203208,168389,76.0
2026-04-18T19:35:13.082,1,685,203208,168389,76.0
2026-04-18T19:35:13.092,1,686,203208,168389,76.0
2026-04-18T19:35:13.103,1,687,203208,168389,76.0
2026-04-18T19:35:13.112,1,688,203026,168103,76.0
2026-04-18T19:35:13.122,1,689,203026,168103,76.0
2026-04-18T19:35:13.132,1,690,203026,168103,76.0
2026-04-18T19:35:13.142,1,691,203026,168103,76.0
2026-04-18T19:35:13.152,1,692,202764,167668,76.0
2026-04-18T19:35:13.162,1,693,202764,167668,76.0
2026-04-18T19:35:13.172,1,694,202764,167668,76.0
2026-04-18T19:35:13.182,1,695,202764,167668,76.0
2026-04-18T19:35:13.192,1,696,202517,167265,76.0
2026-04-18T19:35:13.202,1,697,202517,167265,76.0
2026-04-18T19:35:13.212,1,698,202517,167265,76.0
2026-04-18T19:35:13.222,1,699,202517,167265,76.0
2026-04-18T19:35:13.232,1,700,202214,166768,76.0
2026-04-18T19:35:13.242,1,701,202214,166768,76.0
2026-04-18T19:35:13.252,1,702,202214,166768,76.0
2026-04-18T19:35:13.262,1,703,202214,166768,76.0
2026-04-18T19:35:13.272,1,704,201964,166328,76.0
2026-04-18T19:35:13.282,1,705,201964,166328,76.0
2026-04-18T19:35:13.292,1,706,201964,166328,76.0
2026-04-18T19:35:13.302,1,707,201964,166328,76.0
2026-04-18T19:35:13.311,1,708,201747,165949,76.0
2026-04-18T19:35:13.321,1,709,201747,165949,76.0
2026-04-18T19:35:13.332,1,710,201747,165949,76.0
2026-04-18T19:35:13.341,1,711,201747,165949,76.0
2026-04-18T19:35:13.352,1,712,201589,165684,76.0
2026-04-18T19:35:13.361,1,713,201589,165684,76.0
2026-04-18T19:35:13.372,1,714,201589,165684,76.0
2026-04-18T19:35:13.382,1,715,201589,165684,76.0
2026-04-18T19:35:13.392,1,716,201525,165573,76.0
2026-04-18T19:35:13.402,1,717,201525,165573,76.0
2026-04-18T19:35:13.412,1,718,201525,165573,76.0
2026-04-18T19:35:13.422,1,719,201525,165573,76.0
2026-04-18T19:35:13.432,1,720,201457,165401,76.0
2026-04-18T19:35:13.442,1,721,201457,165401,76.0
2026-04-18T19:35:13.452,1,722,201457,165401,76.0
2026-04-18T19:35:13.462,1,723,201457,165401,76.0
2026-04-18T19:35:13.472,1,724,201362,165081,76.0
2026-04-18T19:35:13.482,1,725,201362,165081,76.0
2026-04-18T19:35:13.492,1,726,201362,165081,76.0
2026-04-18T19:35:13.501,1,727,201362,165081,76.0
2026-04-18T19:35:13.512,1,728,201347,165060,76.0
2026-04-18T19:35:13.522,1,729,201347,165060,76.0
2026-04-18T19:35:13.532,1,730,201347,165060,76.0
2026-04-18T19:35:13.542,1,731,201347,165060,76.0
2026-04-18T19:35:13.551,1,732,201616,165515,76.0
2026-04-18T19:35:13.561,1,733,201616,165515,76.0
2026-04-18T19:35:13.571,1,734,201616,165515,76.0
2026-04-18T19:35:13.582,1,735,201616,165515,76.0
2026-04-18T19:35:13.592,1,736,201751,165735,76.0
2026-04-18T19:35:13.602,1,737,201751,165735,76.0
2026-04-18T19:35:13.612,1,738,201751,165735,76.0
2026-04-18T19:35:13.621,1,739,201751,165735,76.0
2026-04-18T19:35:13.631,1,740,201977,166089,76.0
2026-04-18T19:35:13.642,1,741,201977,166089,76.0
2026-04-18T19:35:13.652,1,742,201977,166089,76.0
2026-04-18T19:35:13.662,1,743,201977,166089,76.0
2026-04-18T19:35:13.672,1,744,202251,166609,76.0
2026-04-18T19:35:13.682,1,745,202251,166609,76.0
2026-04-18T19:35:13.691,1,746,202251,166609,76.0
2026-04-18T19:35:13.702,1,747,202251,166609,76.0
2026-04-18T19:35:13.711,1,748,202454,167022,76.0
2026-04-18T19:35:13.721,1,749,202454,167022,76.0
2026-04-18T19:35:13.731,1,750,202454,167022,76.0
2026-04-18T19:35:13.741,1,751,202454,167022,76.0
2026-04-18T19:35:13.751,1,752,202736,167634,76.0
2026-04-18T19:35:13.761,1,753,202736,167634,76.0
2026-04-18T19:35:13.772,1,754,202736,167634,76.0
2026-04-18T19:35:13.782,1,755,202736,167634,76.0
2026-04-18T19:35:13.791,1,756,202901,167962,76.0
2026-04-18T19:35:13.801,1,757,202901,167962,76.0
2026-04-18T19:35:13.811,1,758,202901,167962,76.0
2026-04-18T19:35:13.821,1,759,202901,167962,76.0
2026-04-18T19:35:13.831,1,760,203301,168641,76.0
2026-04-18T19:35:13.841,1,761,203301,168641,76.0
2026-04-18T19:35:13.851,1,762,203301,168641,76.0
2026-04-18T19:35:13.861,1,763,203301,168641,76.0
2026-04-18T19:35:13.871,1,764,203637,169144,76.0
2026-04-18T19:35:13.881,1,765,203637,169144,76.0
2026-04-18T19:35:13.891,1,766,203637,169144,76.0
2026-04-18T19:35:13.901,1,767,203637,169144,76.0
2026-04-18T19:35:13.911,1,768,203804,169500,76.0
2026-04-18T19:35:13.921,1,769,203804,169500,76.0
2026-04-18T19:35:13.931,1,770,203804,169500,76.0
2026-04-18T19:35:13.941,1,771,203804,169500,76.0
2026-04-18T19:35:13.952,1,772,203889,169692,76.0
2026-04-18T19:35:13.961,1,773,203889,169692,76.0
2026-04-18T19:35:13.971,1,774,203889,169692,76.0
2026-04-18T19:35:13.981,1,775,203889,169692,76.0
2026-04-18T19:35:13.991,1,776,204000,169895,76.0
2026-04-18T19:35:14.001,1,777,204000,169895,76.0
2026-04-18T19:35:14.011,1,778,204000,169895,76.0
2026-04-18T19:35:14.021,1,779,204000,169895,76.0
2026-04-18T19:35:14.031,1,780,204161,170199,76.0
2026-04-18T19:35:14.041,1,781,204161,170199,76.0
2026-04-18T19:35:14.051,1,782,204161,170199,76.0
2026-04-18T19:35:14.061,1,783,204161,170199,76.0
2026-04-18T19:35:14.071,1,784,204229,170338,76.0
2026-04-18T19:35:14.081,1,785,204229,170338,76.0
2026-04-18T19:35:14.091,1,786,204229,170338,76.0
2026-04-18T19:35:14.101,1,787,204229,170338,76.0
2026-04-18T19:35:14.111,1,788,204240,170423,76.0
2026-04-18T19:35:14.121,1,789,204240,170423,76.0
2026-04-18T19:35:14.131,1,790,204240,170423,76.0
2026-04-18T19:35:14.141,1,791,204240,170423,76.0
2026-04-18T19:35:14.151,1,792,204348,170621,76.0
2026-04-18T19:35:14.161,1,793,204348,170621,76.0
2026-04-18T19:35:14.171,1,794,204348,170621,76.0
2026-04-18T19:35:14.181,1,795,204348,170621,76.0
2026-04-18T19:35:14.191,1,796,204275,170499,76.0
2026-04-18T19:35:14.201,1,797,204275,170499,76.0
2026-04-18T19:35:14.211,1,798,204275,170499,76.0
2026-04-18T19:35:14.221,1,799,204275,170499,76.0
2026-04-18T19:35:14.231,1,800,204305,170506,76.0
2026-04-18T19:35:14.241,1,801,204305,170506,76.0
2026-04-18T19:35:14.251,1,802,204305,170506,76.0
2026-04-18T19:35:14.261,1,803,204305,170506,76.0
2026-04-18T19:35:14.271,1,804,204476,170787,76.0
2026-04-18T19:35:14.281,1,805,204476,170787,76.0
2026-04-18T19:35:14.290,1,806,204476,170787,76.0
2026-04-18T19:35:14.301,1,807,204476,170787,76.0
2026-04-18T19:35:14.311,1,808,204683,171115,76.0
2026-04-18T19:35:14.321,1,809,204683,171115,76.0
2026-04-18T19:35:14.331,1,810,204683,171115,76.0
2026-04-18T19:35:14.341,1,811,204683,171115,76.0
2026-04-18T19:35:14.351,1,812,204771,171299,76.0
2026-04-18T19:35:14.361,1,813,204771,171299,76.0
2026-04-18T19:35:14.371,1,814,204771,171299,76.0
2026-04-18T19:35:14.381,1,815,204771,171299,76.0
2026-04-18T19:35:14.391,1,816,204891,171564,76.0
2026-04-18T19:35:14.401,1,817,204891,171564,76.0
2026-04-18T19:35:14.411,1,818,204891,171564,76.0
2026-04-18T19:35:14.421,1,819,204891,171564,76.0
2026-04-18T19:35:14.431,1,820,205087,171980,76.0
2026-04-18T19:35:14.441,1,821,205087,171980,76.0
2026-04-18T19:35:14.451,1,822,205087,171980,76.0
2026-04-18T19:35:14.460,1,823,205087,171980,76.0
2026-04-18T19:35:14.471,1,824,205183,172200,76.0
2026-04-18T19:35:14.481,1,825,205183,172200,76.0
2026-04-18T19:35:14.491,1,826,205183,172200,76.0
2026-04-18T19:35:14.501,1,827,205183,172200,76.0
2026-04-18T19:35:14.510,1,828,205234,172426,76.0
2026-04-18T19:35:14.520,1,829,205234,172426,76.0
2026-04-18T19:35:14.530,1,830,205234,172426,76.0
2026-04-18T19:35:14.540,1,831,205234,172426,76.0
2026-04-18T19:35:14.550,1,832,205367,172676,76.0
2026-04-18T19:35:14.560,1,833,205367,172676,76.0
2026-04-18T19:35:14.570,1,834,205367,172676,76.0
2026-04-18T19:35:14.581,1,835,205367,172676,76.0
2026-04-18T19:35:14.590,1,836,205447,172801,76.0
2026-04-18T19:35:14.600,1,837,205447,172801,76.0
2026-04-18T19:35:14.610,1,838,205447,172801,76.0
2026-04-18T19:35:14.621,1,839,205447,172801,76.0
2026-04-18T19:35:14.630,1,840,205414,172750,76.0
2026-04-18T19:35:14.640,1,841,205414,172750,76.0
2026-04-18T19:35:14.650,1,842,205414,172750,76.0
2026-04-18T19:35:14.660,1,843,205414,172750,76.0
2026-04-18T19:35:14.671,1,844,205349,172646,76.0
2026-04-18T19:35:14.681,1,845,205349,172646,76.0
2026-04-18T19:35:14.690,1,846,205349,172646,76.0
2026-04-18T19:35:14.700,1,847,205349,172646,76.0
2026-04-18T19:35:14.710,1,848,205239,172484,76.0
2026-04-18T19:35:14.720,1,849,205239,172484,76.0
2026-04-18T19:35:14.730,1,850,205239,172484,76.0
2026-04-18T19:35:14.740,1,851,205239,172484,76.0
2026-04-18T19:35:14.750,1,852,205179,172362,76.0
2026-04-18T19:35:14.760,1,853,205179,172362,76.0
2026-04-18T19:35:14.770,1,854,205179,172362,76.0
2026-04-18T19:35:14.781,1,855,205179,172362,76.0
2026-04-18T19:35:14.790,1,856,205139,172318,76.0
2026-04-18T19:35:14.800,1,857,205139,172318,76.0
2026-04-18T19:35:14.810,1,858,205139,172318,76.0
2026-04-18T19:35:14.820,1,859,205139,172318,76.0
2026-04-18T19:35:14.830,1,860,205030,172104,76.0
2026-04-18T19:35:14.840,1,861,205030,172104,76.0
2026-04-18T19:35:14.850,1,862,205030,172104,76.0
2026-04-18T19:35:14.860,1,863,205030,172104,76.0
2026-04-18T19:35:14.870,1,864,205004,172046,76.0
2026-04-18T19:35:14.880,1,865,205004,172046,76.0
2026-04-18T19:35:14.890,1,866,205004,172046,76.0
2026-04-18T19:35:14.899,1,867,205004,172046,76.0
2026-04-18T19:35:14.910,1,868,205005,172026,76.0
2026-04-18T19:35:14.920,1,869,205005,172026,76.0
2026-04-18T19:35:14.930,1,870,205005,172026,76.0
2026-04-18T19:35:14.940,1,871,205005,172026,76.0
2026-04-18T19:35:14.950,1,872,204920,171803,76.0
2026-04-18T19:35:14.960,1,873,204920,171803,76.0
2026-04-18T19:35:14.970,1,874,204920,171803,76.0
2026-04-18T19:35:14.980,1,875,204920,171803,76.0
2026-04-18T19:35:14.990,1,876,204912,171702,76.0
2026-04-18T19:35:15.000,1,877,204912,171702,76.0
2026-04-18T19:35:15.010,1,878,204912,171702,76.0
2026-04-18T19:35:15.020,1,879,204912,171702,76.0
2026-04-18T19:35:15.029,1,880,204983,171816,76.0
2026-04-18T19:35:15.040,1,881,204983,171816,76.0
2026-04-18T19:35:15.050,1,882,204983,171816,76.0
2026-04-18T19:35:15.060,1,883,204983,171816,76.0
2026-04-18T19:35:15.070,1,884,205205,172252,76.0
2026-04-18T19:35:15.080,1,885,205205,172252,76.0
2026-04-18T19:35:15.090,1,886,205205,172252,76.0
2026-04-18T19:35:15.100,1,887,205205,172252,76.0
2026-04-18T19:35:15.110,1,888,205247,172351,76.0
2026-04-18T19:35:15.120,1,889,205247,172351,76.0
2026-04-18T19:35:15.130,1,890,205247,172351,76.0
2026-04-18T19:35:15.140,1,891,205247,172351,76.0
2026-04-18T19:35:15.150,1,892,205328,172592,76.0
2026-04-18T19:35:15.160,1,893,205328,172592,76.0
2026-04-18T19:35:15.170,1,894,205328,172592,76.0
2026-04-18T19:35:15.180,1,895,205328,172592,76.0
2026-04-18T19:35:15.190,1,896,205373,172682,76.0
2026-04-18T19:35:15.200,1,897,205373,172682,76.0
2026-04-18T19:35:15.210,1,898,205373,172682,76.0
2026-04-18T19:35:15.220,1,899,205373,172682,76.0
2026-04-18T19:35:15.230,1,900,205379,172734,76.0
2026-04-18T19:35:15.240,1,901,205379,172734,76.0
2026-04-18T19:35:15.250,1,902,205379,172734,76.0
2026-04-18T19:35:15.260,1,903,205379,172734,76.0
2026-04-18T19:35:15.270,1,904,205419,172864,76.0
2026-04-18T19:35:15.279,1,905,205419,172864,76.0
2026-04-18T19:35:15.289,1,906,205419,172864,76.0
2026-04-18T19:35:15.299,1,907,205419,172864,76.0
2026-04-18T19:35:15.309,1,908,205465,172919,76.0
2026-04-18T19:35:15.319,1,909,205465,172919,76.0
2026-04-18T19:35:15.329,1,910,205465,172919,76.0
2026-04-18T19:35:15.339,1,911,205465,172919,76.0
2026-04-18T19:35:15.350,1,912,205572,173095,76.0
2026-04-18T19:35:15.360,1,913,205572,173095,76.0
2026-04-18T19:35:15.370,1,914,205572,173095,76.0
2026-04-18T19:35:15.379,1,915,205572,173095,76.0
2026-04-18T19:35:15.389,1,916,205505,172974,76.0
2026-04-18T19:35:15.400,1,917,205505,172974,76.0
2026-04-18T19:35:15.410,1,918,205505,172974,76.0
2026-04-18T19:35:15.420,1,919,205505,172974,76.0
2026-04-18T19:35:15.430,1,920,205447,172907,76.0
2026-04-18T19:35:15.439,1,921,205447,172907,76.0
2026-04-18T19:35:15.449,1,922,205447,172907,76.0
2026-04-18T19:35:15.459,1,923,205447,172907,76.0
2026-04-18T19:35:15.469,1,924,205339,172712,76.0
2026-04-18T19:35:15.479,1,925,205339,172712,76.0
2026-04-18T19:35:15.489,1,926,205339,172712,76.0
2026-04-18T19:35:15.499,1,927,205339,172712,76.0
2026-04-18T19:35:15.509,1,928,205302,172636,76.0
2026-04-18T19:35:15.519,1,929,205302,172636,76.0
2026-04-18T19:35:15.529,1,930,205302,172636,76.0
2026-04-18T19:35:15.539,1,931,205302,172636,76.0
2026-04-18T19:35:15.549,1,932,205175,172401,76.0
2026-04-18T19:35:15.559,1,933,205175,172401,76.0
2026-04-18T19:35:15.569,1,934,205175,172401,76.0
2026-04-18T19:35:15.579,1,935,205175,172401,76.0
2026-04-18T19:35:15.589,1,936,205085,172209,76.0
2026-04-18T19:35:15.599,1,937,205085,172209,76.0
2026-04-18T19:35:15.609,1,938,205085,172209,76.0
2026-04-18T19:35:15.619,1,939,205085,172209,76.0
2026-04-18T19:35:15.629,1,940,205078,172215,76.0
2026-04-18T19:35:15.639,1,941,205078,172215,76.0
2026-04-18T19:35:15.649,1,942,205078,172215,76.0
2026-04-18T19:35:15.659,1,943,205078,172215,76.0
2026-04-18T19:35:15.669,1,944,205038,172124,76.0
2026-04-18T19:35:15.679,1,945,205038,172124,76.0
2026-04-18T19:35:15.690,1,946,205038,172124,76.0
2026-04-18T19:35:15.699,1,947,205038,172124,76.0
2026-04-18T19:35:15.709,1,948,205045,172067,76.0
2026-04-18T19:35:15.719,1,949,205045,172067,76.0
2026-04-18T19:35:15.729,1,950,205045,172067,76.0
2026-04-18T19:35:15.739,1,951,205045,172067,76.0
2026-04-18T19:35:15.749,1,952,205063,172069,76.0
2026-04-18T19:35:15.759,1,953,205063,172069,76.0
2026-04-18T19:35:15.769,1,954,205063,172069,76.0
2026-04-18T19:35:15.779,1,955,205063,172069,76.0
2026-04-18T19:35:15.789,1,956,205153,172206,76.0
2026-04-18T19:35:15.799,1,957,205153,172206,76.0
2026-04-18T19:35:15.809,1,958,205153,172206,76.0
2026-04-18T19:35:15.819,1,959,205153,172206,76.0
2026-04-18T19:35:15.829,1,960,205264,172366,76.0
2026-04-18T19:35:15.839,1,961,205264,172366,76.0
2026-04-18T19:35:15.849,1,962,205264,172366,76.0
2026-04-18T19:35:15.859,1,963,205264,172366,76.0
2026-04-18T19:35:15.869,1,964,205326,172538,76.0
2026-04-18T19:35:15.879,1,965,205326,172538,76.0
2026-04-18T19:35:15.889,1,966,205326,172538,76.0
2026-04-18T19:35:15.899,1,967,205326,172538,76.0
2026-04-18T19:35:15.909,1,968,205469,172842,76.0
2026-04-18T19:35:15.918,1,969,205469,172842,76.0
2026-04-18T19:35:15.928,1,970,205469,172842,76.0
2026-04-18T19:35:15.938,1,971,205469,172842,76.0
2026-04-18T19:35:15.948,1,972,205524,172960,76.0
2026-04-18T19:35:15.958,1,973,205524,172960,76.0
2026-04-18T19:35:15.968,1,974,205524,172960,76.0
2026-04-18T19:35:15.978,1,975,205524,172960,76.0
2026-04-18T19:35:15.989,1,976,205655,173301,76.0
2026-04-18T19:35:15.999,1,977,205655,173301,76.0
2026-04-18T19:35:16.009,1,978,205655,173301,76.0
2026-04-18T19:35:16.019,1,979,205655,173301,76.0
2026-04-18T19:35:16.029,1,980,205627,173288,76.0
2026-04-18T19:35:16.039,1,981,205627,173288,76.0
2026-04-18T19:35:16.049,1,982,205627,173288,76.0
2026-04-18T19:35:16.059,1,983,205627,173288,76.0
2026-04-18T19:35:16.068,1,984,205682,173328,76.0
2026-04-18T19:35:16.079,1,985,205682,173328,76.0
2026-04-18T19:35:16.088,1,986,205682,173328,76.0
2026-04-18T19:35:16.098,1,987,205682,173328,76.0
2026-04-18T19:35:16.109,1,988,205656,173294,76.0
2026-04-18T19:35:16.119,1,989,205656,173294,76.0
2026-04-18T19:35:16.129,1,990,205656,173294,76.0
2026-04-18T19:35:16.138,1,991,205656,173294,76.0
2026-04-18T19:35:16.148,1,992,205550,173097,76.0
2026-04-18T19:35:16.158,1,993,205550,173097,76.0
2026-04-18T19:35:16.169,1,994,205550,173097,76.0
2026-04-18T19:35:16.178,1,995,205550,173097,76.0
2026-04-18T19:35:16.188,1,996,205420,172883,76.0
2026-04-18T19:35:16.198,1,997,205420,172883,76.0
2026-04-18T19:35:16.208,1,998,205420,172883,76.0
2026-04-18T19:35:16.218,1,999,205420,172883,76.0
2026-04-18T19:35:16.228,1,1000,205380,172831,76.0
2026-04-18T19:35:16.238,1,1001,205380,172831,76.0
2026-04-18T19:35:23.459,2,0,205962,174158,79.0
2026-04-18T19:35:23.469,2,1,205962,174158,79.0
2026-04-18T19:35:23.479,2,2,205962,174158,79.0
2026-04-18T19:35:23.488,2,3,205962,174158,79.0
2026-04-18T19:35:23.499,2,4,205834,173649,79.0
2026-04-18T19:35:23.509,2,5,205834,173649,79.0
2026-04-18T19:35:23.519,2,6,205834,173649,79.0
2026-04-18T19:35:23.529,2,7,205834,173649,79.0
2026-04-18T19:35:23.539,2,8,205777,173377,79.0
2026-04-18T19:35:23.549,2,9,205777,173377,79.0
2026-04-18T19:35:23.559,2,10,205777,173377,79.0
2026-04-18T19:35:23.569,2,11,205777,173377,79.0
2026-04-18T19:35:23.579,2,12,205546,172812,79.0
2026-04-18T19:35:23.589,2,13,205546,172812,79.0
2026-04-18T19:35:23.599,2,14,205546,172812,79.0
2026-04-18T19:35:23.609,2,15,205546,172812,79.0
2026-04-18T19:35:23.619,2,16,205559,172866,79.0
2026-04-18T19:35:23.629,2,17,205559,172866,79.0
2026-04-18T19:35:23.639,2,18,205559,172866,79.0
2026-04-18T19:35:23.649,2,19,205559,172866,79.0
2026-04-18T19:35:23.659,2,20,205711,173325,79.0
2026-04-18T19:35:23.669,2,21,205711,173325,79.0
2026-04-18T19:35:23.679,2,22,205711,173325,79.0
2026-04-18T19:35:23.689,2,23,205711,173325,79.0
2026-04-18T19:35:23.699,2,24,206021,174039,79.0
2026-04-18T19:35:23.709,2,25,206021,174039,79.0
2026-04-18T19:35:23.719,2,26,206021,174039,79.0
2026-04-18T19:35:23.729,2,27,206021,174039,79.0
2026-04-18T19:35:23.738,2,28,206210,174401,79.0
2026-04-18T19:35:23.749,2,29,206210,174401,79.0
2026-04-18T19:35:23.759,2,30,206210,174401,79.0
2026-04-18T19:35:23.769,2,31,206210,174401,79.0
2026-04-18T19:35:23.779,2,32,206192,174380,79.0
2026-04-18T19:35:23.788,2,33,206192,174380,79.0
2026-04-18T19:35:23.798,2,34,206192,174380,79.0
2026-04-18T19:35:23.808,2,35,206192,174380,79.0
2026-04-18T19:35:23.819,2,36,206233,174478,79.0
2026-04-18T19:35:23.828,2,37,206233,174478,79.0
2026-04-18T19:35:23.838,2,38,206233,174478,79.0
2026-04-18T19:35:23.849,2,39,206233,174478,79.0
2026-04-18T19:35:23.858,2,40,206236,174549,79.0
2026-04-18T19:35:23.868,2,41,206236,174549,79.0
2026-04-18T19:35:23.878,2,42,206236,174549,79.0
2026-04-18T19:35:23.888,2,43,206236,174549,79.0
2026-04-18T19:35:23.898,2,44,206307,174726,79.0
2026-04-18T19:35:23.908,2,45,206307,174726,79.0
2026-04-18T19:35:23.918,2,46,206307,174726,79.0
2026-04-18T19:35:23.928,2,47,206307,174726,79.0
2026-04-18T19:35:23.938,2,48,206326,174763,79.0
2026-04-18T19:35:23.948,2,49,206326,174763,79.0
2026-04-18T19:35:23.958,2,50,206326,174763,79.0
2026-04-18T19:35:23.968,2,51,206326,174763,79.0
2026-04-18T19:35:23.978,2,52,206357,174877,79.0
2026-04-18T19:35:23.989,2,53,206357,174877,79.0
2026-04-18T19:35:23.999,2,54,206357,174877,79.0
2026-04-18T19:35:24.009,2,55,206357,174877,79.0
2026-04-18T19:35:24.018,2,56,206335,174756,79.0
2026-04-18T19:35:24.028,2,57,206335,174756,79.0
2026-04-18T19:35:24.038,2,58,206335,174756,79.0
2026-04-18T19:35:24.048,2,59,206335,174756,79.0
2026-04-18T19:35:24.058,2,60,206387,174824,79.0
2026-04-18T19:35:24.068,2,61,206387,174824,79.0
2026-04-18T19:35:24.078,2,62,206387,174824,79.0
2026-04-18T19:35:24.088,2,63,206387,174824,79.0
2026-04-18T19:35:24.098,2,64,206507,174985,79.0
2026-04-18T19:35:24.108,2,65,206507,174985,79.0
2026-04-18T19:35:24.118,2,66,206507,174985,79.0
2026-04-18T19:35:24.128,2,67,206507,174985,79.0
2026-04-18T19:35:24.138,2,68,206606,175101,79.0
2026-04-18T19:35:24.148,2,69,206606,175101,79.0
2026-04-18T19:35:24.158,2,70,206606,175101,79.0
2026-04-18T19:35:24.168,2,71,206606,175101,79.0
2026-04-18T19:35:24.178,2,72,206767,175351,79.0
2026-04-18T19:35:24.188,2,73,206767,175351,79.0
2026-04-18T19:35:24.198,2,74,206767,175351,79.0
2026-04-18T19:35:24.208,2,75,206767,175351,79.0
2026-04-18T19:35:24.218,2,76,206955,175655,79.0
2026-04-18T19:35:24.227,2,77,206955,175655,79.0
2026-04-18T19:35:24.237,2,78,206955,175655,79.0
2026-04-18T19:35:24.247,2,79,206955,175655,79.0
2026-04-18T19:35:24.257,2,80,206972,175680,79.0
2026-04-18T19:35:24.268,2,81,206972,175680,79.0
2026-04-18T19:35:24.278,2,82,206972,175680,79.0
2026-04-18T19:35:24.288,2,83,206972,175680,79.0
2026-04-18T19:35:24.298,2,84,207091,175954,79.0
2026-04-18T19:35:24.308,2,85,207091,175954,79.0
2026-04-18T19:35:24.317,2,86,207091,175954,79.0
2026-04-18T19:35:24.327,2,87,207091,175954,79.0
2026-04-18T19:35:24.337,2,88,207217,176271,79.0
2026-04-18T19:35:24.347,2,89,207217,176271,79.0
2026-04-18T19:35:24.357,2,90,207217,176271,79.0
2026-04-18T19:35:24.367,2,91,207217,176271,79.0
2026-04-18T19:35:24.377,2,92,207276,176428,79.0
2026-04-18T19:35:24.387,2,93,207276,176428,79.0
2026-04-18T19:35:24.397,2,94,207276,176428,79.0
2026-04-18T19:35:24.407,2,95,207276,176428,79.0
2026-04-18T19:35:24.417,2,96,207262,176501,79.0
2026-04-18T19:35:24.428,2,97,207262,176501,79.0
2026-04-18T19:35:24.438,2,98,207262,176501,79.0
2026-04-18T19:35:24.448,2,99,207262,176501,79.0
2026-04-18T19:35:24.458,2,100,207342,176707,79.0
2026-04-18T19:35:24.468,2,101,207342,176707,79.0
2026-04-18T19:35:24.477,2,102,207342,176707,79.0
2026-04-18T19:35:24.487,2,103,207342,176707,79.0
2026-04-18T19:35:24.497,2,104,207433,176839,79.0
2026-04-18T19:35:24.507,2,105,207433,176839,79.0
2026-04-18T19:35:24.517,2,106,207433,176839,79.0
2026-04-18T19:35:24.527,2,107,207433,176839,79.0
2026-04-18T19:35:24.538,2,108,207372,176708,79.0
2026-04-18T19:35:24.547,2,109,207372,176708,79.0
2026-04-18T19:35:24.558,2,110,207372,176708,79.0
2026-04-18T19:35:24.567,2,111,207372,176708,79.0
2026-04-18T19:35:24.578,2,112,207345,176663,79.0
2026-04-18T19:35:24.587,2,113,207345,176663,79.0
2026-04-18T19:35:24.598,2,114,207345,176663,79.0
2026-04-18T19:35:24.607,2,115,207345,176663,79.0
2026-04-18T19:35:24.617,2,116,207112,176073,79.0
2026-04-18T19:35:24.627,2,117,207112,176073,79.0
2026-04-18T19:35:24.637,2,118,207112,176073,79.0
2026-04-18T19:35:24.647,2,119,207112,176073,79.0
2026-04-18T19:35:24.657,2,120,206912,175524,79.0
2026-04-18T19:35:24.667,2,121,206912,175524,79.0
2026-04-18T19:35:24.677,2,122,206912,175524,79.0
2026-04-18T19:35:24.687,2,123,206912,175524,79.0
2026-04-18T19:35:24.697,2,124,206648,174852,79.0
2026-04-18T19:35:24.707,2,125,206648,174852,79.0
2026-04-18T19:35:24.717,2,126,206648,174852,79.0
2026-04-18T19:35:24.727,2,127,206648,174852,79.0
2026-04-18T19:35:24.737,2,128,206326,174093,79.0
2026-04-18T19:35:24.747,2,129,206326,174093,79.0
2026-04-18T19:35:24.757,2,130,206326,174093,79.0
2026-04-18T19:35:24.767,2,131,206326,174093,79.0
2026-04-18T19:35:24.777,2,132,205980,173320,79.0
2026-04-18T19:35:24.787,2,133,205980,173320,79.0
2026-04-18T19:35:24.797,2,134,205980,173320,79.0
2026-04-18T19:35:24.807,2,135,205980,173320,79.0
2026-04-18T19:35:24.817,2,136,205635,172549,79.0
2026-04-18T19:35:24.827,2,137,205635,172549,79.0
2026-04-18T19:35:24.837,2,138,205635,172549,79.0
2026-04-18T19:35:24.847,2,139,205635,172549,79.0
2026-04-18T19:35:24.857,2,140,205218,171656,79.0
2026-04-18T19:35:24.868,2,141,205218,171656,79.0
2026-04-18T19:35:24.877,2,142,205218,171656,79.0
2026-04-18T19:35:24.887,2,143,205218,171656,79.0
2026-04-18T19:35:24.898,2,144,204846,170877,79.0
2026-04-18T19:35:24.907,2,145,204846,170877,79.0
2026-04-18T19:35:24.916,2,146,204846,170877,79.0
2026-04-18T19:35:24.927,2,147,204846,170877,79.0
2026-04-18T19:35:24.937,2,148,204576,170266,79.0
2026-04-18T19:35:24.947,2,149,204576,170266,79.0
2026-04-18T19:35:24.957,2,150,204576,170266,79.0
2026-04-18T19:35:24.967,2,151,204576,170266,79.0
2026-04-18T19:35:24.978,2,152,204536,170171,79.0
2026-04-18T19:35:24.987,2,153,204536,170171,79.0
2026-04-18T19:35:24.997,2,154,204536,170171,79.0
2026-04-18T19:35:25.007,2,155,204536,170171,79.0
2026-04-18T19:35:25.017,2,156,204262,169657,79.0
2026-04-18T19:35:25.027,2,157,204262,169657,79.0
2026-04-18T19:35:25.037,2,158,204262,169657,79.0
2026-04-18T19:35:25.047,2,159,204262,169657,79.0
2026-04-18T19:35:25.057,2,160,204166,169494,79.0
2026-04-18T19:35:25.067,2,161,204166,169494,79.0
2026-04-18T19:35:25.077,2,162,204166,169494,79.0
2026-04-18T19:35:25.087,2,163,204166,169494,79.0
2026-04-18T19:35:25.097,2,164,204097,169427,79.0
2026-04-18T19:35:25.107,2,165,204097,169427,79.0
2026-04-18T19:35:25.117,2,166,204097,169427,79.0
2026-04-18T19:35:25.126,2,167,204097,169427,79.0
2026-04-18T19:35:25.137,2,168,203867,169122,79.0
2026-04-18T19:35:25.147,2,169,203867,169122,79.0
2026-04-18T19:35:25.157,2,170,203867,169122,79.0
2026-04-18T19:35:25.167,2,171,203867,169122,79.0
2026-04-18T19:35:25.177,2,172,203792,169183,79.0
2026-04-18T19:35:25.187,2,173,203792,169183,79.0
2026-04-18T19:35:25.197,2,174,203792,169183,79.0
2026-04-18T19:35:25.207,2,175,203792,169183,79.0
2026-04-18T19:35:25.217,2,176,203644,169099,79.0
2026-04-18T19:35:25.227,2,177,203644,169099,79.0
2026-04-18T19:35:25.237,2,178,203644,169099,79.0
2026-04-18T19:35:25.247,2,179,203644,169099,79.0
2026-04-18T19:35:25.257,2,180,203302,168606,79.0
2026-04-18T19:35:25.267,2,181,203302,168606,79.0
2026-04-18T19:35:25.277,2,182,203302,168606,79.0
2026-04-18T19:35:25.287,2,183,203302,168606,79.0
2026-04-18T19:35:25.296,2,184,202876,167984,79.0
2026-04-18T19:35:25.307,2,185,202876,167984,79.0
2026-04-18T19:35:25.317,2,186,202876,167984,79.0
2026-04-18T19:35:25.327,2,187,202876,167984,79.0
2026-04-18T19:35:25.337,2,188,202524,167515,79.0
2026-04-18T19:35:25.346,2,189,202524,167515,79.0
2026-04-18T19:35:25.357,2,190,202524,167515,79.0
2026-04-18T19:35:25.367,2,191,202524,167515,79.0
2026-04-18T19:35:25.377,2,192,202188,167113,79.0
2026-04-18T19:35:25.387,2,193,202188,167113,79.0
2026-04-18T19:35:25.396,2,194,202188,167113,79.0
2026-04-18T19:35:25.406,2,195,202188,167113,79.0
2026-04-18T19:35:25.417,2,196,201813,166616,79.0
2026-04-18T19:35:25.427,2,197,201813,166616,79.0
2026-04-18T19:35:25.437,2,198,201813,166616,79.0
2026-04-18T19:35:25.446,2,199,201813,166616,79.0
2026-04-18T19:35:25.457,2,200,201467,166110,79.0
2026-04-18T19:35:25.467,2,201,201467,166110,79.0
2026-04-18T19:35:25.477,2,202,201467,166110,79.0
2026-04-18T19:35:25.486,2,203,201467,166110,79.0
2026-04-18T19:35:25.496,2,204,201088,165516,79.0
2026-04-18T19:35:25.506,2,205,201088,165516,79.0
2026-04-18T19:35:25.516,2,206,201088,165516,79.0
2026-04-18T19:35:25.527,2,207,201088,165516,79.0
2026-04-18T19:35:25.537,2,208,200720,164933,79.0
2026-04-18T19:35:25.547,2,209,200720,164933,79.0
2026-04-18T19:35:25.556,2,210,200720,164933,79.0
2026-04-18T19:35:25.567,2,211,200720,164933,79.0
2026-04-18T19:35:25.576,2,212,200724,164895,79.0
2026-04-18T19:35:25.586,2,213,200724,164895,79.0
2026-04-18T19:35:25.596,2,214,200724,164895,79.0
2026-04-18T19:35:25.606,2,215,200724,164895,79.0
2026-04-18T19:35:25.616,2,216,200860,164910,79.0
2026-04-18T19:35:25.627,2,217,200860,164910,79.0
2026-04-18T19:35:25.636,2,218,200860,164910,79.0
2026-04-18T19:35:25.646,2,219,200860,164910,79.0
2026-04-18T19:35:25.656,2,220,200990,164983,79.0
2026-04-18T19:35:25.667,2,221,200990,164983,79.0
2026-04-18T19:35:25.676,2,222,200990,164983,79.0
2026-04-18T19:35:25.687,2,223,200990,164983,79.0
2026-04-18T19:35:25.696,2,224,201086,165145,79.0
2026-04-18T19:35:25.706,2,225,201086,165145,79.0
2026-04-18T19:35:25.716,2,226,201086,165145,79.0
2026-04-18T19:35:25.726,2,227,201086,165145,79.0
2026-04-18T19:35:25.736,2,228,201056,165028,79.0
2026-04-18T19:35:25.746,2,229,201056,165028,79.0
2026-04-18T19:35:25.756,2,230,201056,165028,79.0
2026-04-18T19:35:25.766,2,231,201056,165028,79.0
2026-04-18T19:35:25.776,2,232,201052,164975,79.0
2026-04-18T19:35:25.786,2,233,201052,164975,79.0
2026-04-18T19:35:25.796,2,234,201052,164975,79.0
2026-04-18T19:35:25.806,2,235,201052,164975,79.0
2026-04-18T19:35:25.816,2,236,201190,165241,79.0
2026-04-18T19:35:25.826,2,237,201190,165241,79.0
2026-04-18T19:35:25.836,2,238,201190,165241,79.0
2026-04-18T19:35:25.846,2,239,201190,165241,79.0
2026-04-18T19:35:25.856,2,240,201354,165516,79.0
2026-04-18T19:35:25.866,2,241,201354,165516,79.0
2026-04-18T19:35:25.876,2,242,201354,165516,79.0
2026-04-18T19:35:25.886,2,243,201354,165516,79.0
2026-04-18T19:35:25.896,2,244,201630,165975,79.0
2026-04-18T19:35:25.906,2,245,201630,165975,79.0
2026-04-18T19:35:25.915,2,246,201630,165975,79.0
2026-04-18T19:35:25.925,2,247,201630,165975,79.0
2026-04-18T19:35:25.935,2,248,201842,166345,79.0
2026-04-18T19:35:25.945,2,249,201842,166345,79.0
2026-04-18T19:35:25.955,2,250,201842,166345,79.0
2026-04-18T19:35:25.965,2,251,201842,166345,79.0
2026-04-18T19:35:25.975,2,252,202221,166990,79.0
2026-04-18T19:35:25.985,2,253,202221,166990,79.0
2026-04-18T19:35:25.995,2,254,202221,166990,79.0
2026-04-18T19:35:26.006,2,255,202221,166990,79.0
2026-04-18T19:35:26.016,2,256,202539,167470,79.0
2026-04-18T19:35:26.026,2,257,202539,167470,79.0
2026-04-18T19:35:26.036,2,258,202539,167470,79.0
2026-04-18T19:35:26.046,2,259,202539,167470,79.0
2026-04-18T19:35:26.056,2,260,202848,167929,79.0
2026-04-18T19:35:26.065,2,261,202848,167929,79.0
2026-04-18T19:35:26.076,2,262,202848,167929,79.0
2026-04-18T19:35:26.086,2,263,202848,167929,79.0
2026-04-18T19:35:26.096,2,264,203091,168330,79.0
2026-04-18T19:35:26.106,2,265,203091,168330,79.0
2026-04-18T19:35:26.116,2,266,203091,168330,79.0
2026-04-18T19:35:26.126,2,267,203091,168330,79.0
2026-04-18T19:35:26.136,2,268,203344,168751,79.0
2026-04-18T19:35:26.146,2,269,203344,168751,79.0
2026-04-18T19:35:26.156,2,270,203344,168751,79.0
2026-04-18T19:35:26.166,2,271,203344,168751,79.0
2026-04-18T19:35:26.176,2,272,203736,169402,79.0
2026-04-18T19:35:26.185,2,273,203736,169402,79.0
2026-04-18T19:35:26.196,2,274,203736,169402,79.0
2026-04-18T19:35:26.205,2,275,203736,169402,79.0
2026-04-18T19:35:26.216,2,276,203986,169835,79.0
2026-04-18T19:35:26.226,2,277,203986,169835,79.0
2026-04-18T19:35:26.235,2,278,203986,169835,79.0
2026-04-18T19:35:26.245,2,279,203986,169835,79.0
2026-04-18T19:35:26.255,2,280,204172,170159,79.0
2026-04-18T19:35:26.265,2,281,204172,170159,79.0
2026-04-18T19:35:26.275,2,282,204172,170159,79.0
2026-04-18T19:35:26.285,2,283,204172,170159,79.0
2026-04-18T19:35:26.295,2,284,204394,170561,79.0
2026-04-18T19:35:26.305,2,285,204394,170561,79.0
2026-04-18T19:35:26.315,2,286,204394,170561,79.0
2026-04-18T19:35:26.325,2,287,204394,170561,79.0
2026-04-18T19:35:26.335,2,288,204534,170811,79.0
2026-04-18T19:35:26.345,2,289,204534,170811,79.0
2026-04-18T19:35:26.355,2,290,204534,170811,79.0
2026-04-18T19:35:26.365,2,291,204534,170811,79.0
2026-04-18T19:35:26.375,2,292,204698,171087,79.0
2026-04-18T19:35:26.385,2,293,204698,171087,79.0
2026-04-18T19:35:26.396,2,294,204698,171087,79.0
2026-04-18T19:35:26.405,2,295,204698,171087,79.0
2026-04-18T19:35:26.415,2,296,204839,171292,79.0
2026-04-18T19:35:26.426,2,297,204839,171292,79.0
2026-04-18T19:35:26.435,2,298,204839,171292,79.0
2026-04-18T19:35:26.445,2,299,204839,171292,79.0
2026-04-18T19:35:26.455,2,300,205027,171588,79.0
2026-04-18T19:35:26.465,2,301,205027,171588,79.0
2026-04-18T19:35:26.476,2,302,205027,171588,79.0
2026-04-18T19:35:26.485,2,303,205027,171588,79.0
2026-04-18T19:35:26.496,2,304,205236,171917,79.0
2026-04-18T19:35:26.505,2,305,205236,171917,79.0
2026-04-18T19:35:26.515,2,306,205236,171917,79.0
2026-04-18T19:35:26.525,2,307,205236,171917,79.0
2026-04-18T19:35:26.535,2,308,205462,172372,79.0
2026-04-18T19:35:26.545,2,309,205462,172372,79.0
2026-04-18T19:35:26.554,2,310,205462,172372,79.0
2026-04-18T19:35:26.565,2,311,205462,172372,79.0
2026-04-18T19:35:26.574,2,312,205811,173097,79.0
2026-04-18T19:35:26.585,2,313,205811,173097,79.0
2026-04-18T19:35:26.594,2,314,205811,173097,79.0
2026-04-18T19:35:26.605,2,315,205811,173097,79.0
2026-04-18T19:35:26.615,2,316,206031,173595,79.0
2026-04-18T19:35:26.625,2,317,206031,173595,79.0
2026-04-18T19:35:26.635,2,318,206031,173595,79.0
2026-04-18T19:35:26.645,2,319,206031,173595,79.0
2026-04-18T19:35:26.655,2,320,206139,173878,79.0
2026-04-18T19:35:26.665,2,321,206139,173878,79.0
2026-04-18T19:35:26.675,2,322,206139,173878,79.0
2026-04-18T19:35:26.685,2,323,206139,173878,79.0
2026-04-18T19:35:26.695,2,324,206337,174365,79.0
2026-04-18T19:35:26.705,2,325,206337,174365,79.0
2026-04-18T19:35:26.715,2,326,206337,174365,79.0
2026-04-18T19:35:26.725,2,327,206337,174365,79.0
2026-04-18T19:35:26.735,2,328,206556,174819,79.0
2026-04-18T19:35:26.744,2,329,206556,174819,79.0
2026-04-18T19:35:26.755,2,330,206556,174819,79.0
2026-04-18T19:35:26.765,2,331,206556,174819,79.0
2026-04-18T19:35:26.775,2,332,206695,175093,79.0
2026-04-18T19:35:26.785,2,333,206695,175093,79.0
2026-04-18T19:35:26.795,2,334,206695,175093,79.0
2026-04-18T19:35:26.805,2,335,206695,175093,79.0
2026-04-18T19:35:26.815,2,336,206771,175294,79.0
2026-04-18T19:35:26.825,2,337,206771,175294,79.0
2026-04-18T19:35:26.835,2,338,206771,175294,79.0
2026-04-18T19:35:26.845,2,339,206771,175294,79.0
2026-04-18T19:35:26.854,2,340,206819,175412,79.0
2026-04-18T19:35:26.865,2,341,206819,175412,79.0
2026-04-18T19:35:26.874,2,342,206819,175412,79.0
2026-04-18T19:35:26.885,2,343,206819,175412,79.0
2026-04-18T19:35:26.894,2,344,206850,175460,79.0
2026-04-18T19:35:26.905,2,345,206850,175460,79.0
2026-04-18T19:35:26.914,2,346,206850,175460,79.0
2026-04-18T19:35:26.925,2,347,206850,175460,79.0
2026-04-18T19:35:26.934,2,348,206845,175464,79.0
2026-04-18T19:35:26.945,2,349,206845,175464,79.0
2026-04-18T19:35:26.955,2,350,206845,175464,79.0
2026-04-18T19:35:26.965,2,351,206845,175464,79.0
2026-04-18T19:35:26.974,2,352,206886,175583,79.0
2026-04-18T19:35:26.984,2,353,206886,175583,79.0
2026-04-18T19:35:26.994,2,354,206886,175583,79.0
2026-04-18T19:35:27.005,2,355,206886,175583,79.0
2026-04-18T19:35:27.015,2,356,206917,175677,79.0
2026-04-18T19:35:27.025,2,357,206917,175677,79.0
2026-04-18T19:35:27.035,2,358,206917,175677,79.0
2026-04-18T19:35:27.045,2,359,206917,175677,79.0
2026-04-18T19:35:27.055,2,360,206992,175859,79.0
2026-04-18T19:35:27.065,2,361,206992,175859,79.0
2026-04-18T19:35:27.074,2,362,206992,175859,79.0
2026-04-18T19:35:27.084,2,363,206992,175859,79.0
2026-04-18T19:35:27.095,2,364,206938,175755,79.0
2026-04-18T19:35:27.104,2,365,206938,175755,79.0
2026-04-18T19:35:27.115,2,366,206938,175755,79.0
2026-04-18T19:35:27.124,2,367,206938,175755,79.0
2026-04-18T19:35:27.135,2,368,206905,175673,79.0
2026-04-18T19:35:27.145,2,369,206905,175673,79.0
2026-04-18T19:35:27.154,2,370,206905,175673,79.0
2026-04-18T19:35:27.164,2,371,206905,175673,79.0
2026-04-18T19:35:27.174,2,372,206994,175794,79.0
2026-04-18T19:35:27.185,2,373,206994,175794,79.0
2026-04-18T19:35:27.194,2,374,206994,175794,79.0
2026-04-18T19:35:27.204,2,375,206994,175794,79.0
2026-04-18T19:35:27.214,2,376,207167,176047,79.0
2026-04-18T19:35:27.224,2,377,207167,176047,79.0
2026-04-18T19:35:27.234,2,378,207167,176047,79.0
2026-04-18T19:35:27.244,2,379,207167,176047,79.0
2026-04-18T19:35:27.254,2,380,207287,176268,79.0
2026-04-18T19:35:27.264,2,381,207287,176268,79.0
2026-04-18T19:35:27.274,2,382,207287,176268,79.0
2026-04-18T19:35:27.284,2,383,207287,176268,79.0
2026-04-18T19:35:27.294,2,384,207333,176403,79.0
2026-04-18T19:35:27.304,2,385,207333,176403,79.0
2026-04-18T19:35:27.314,2,386,207333,176403,79.0
2026-04-18T19:35:27.324,2,387,207333,176403,79.0
2026-04-18T19:35:27.334,2,388,207508,176791,79.0
2026-04-18T19:35:27.344,2,389,207508,176791,79.0
2026-04-18T19:35:27.354,2,390,207508,176791,79.0
2026-04-18T19:35:27.364,2,391,207508,176791,79.0
2026-04-18T19:35:27.374,2,392,207584,176950,79.0
2026-04-18T19:35:27.384,2,393,207584,176950,79.0
2026-04-18T19:35:27.394,2,394,207584,176950,79.0
2026-04-18T19:35:27.404,2,395,207584,176950,79.0
2026-04-18T19:35:27.414,2,396,207629,177202,79.0
2026-04-18T19:35:27.424,2,397,207629,177202,79.0
2026-04-18T19:35:27.434,2,398,207629,177202,79.0
2026-04-18T19:35:27.444,2,399,207629,177202,79.0
2026-04-18T19:35:27.454,2,400,207718,177379,79.0
2026-04-18T19:35:27.464,2,401,207718,177379,79.0
2026-04-18T19:35:27.474,2,402,207718,177379,79.0
2026-04-18T19:35:27.484,2,403,207718,177379,79.0
2026-04-18T19:35:27.494,2,404,207825,177536,79.0
2026-04-18T19:35:27.504,2,405,207825,177536,79.0
2026-04-18T19:35:27.514,2,406,207825,177536,79.0
2026-04-18T19:35:27.524,2,407,207825,177536,79.0
2026-04-18T19:35:27.534,2,408,207811,177512,79.0
2026-04-18T19:35:27.544,2,409,207811,177512,79.0
2026-04-18T19:35:27.554,2,410,207811,177512,79.0
2026-04-18T19:35:27.564,2,411,207811,177512,79.0
2026-04-18T19:35:27.574,2,412,207778,177443,79.0
2026-04-18T19:35:27.583,2,413,207778,177443,79.0
2026-04-18T19:35:27.594,2,414,207778,177443,79.0
2026-04-18T19:35:27.604,2,415,207778,177443,79.0
2026-04-18T19:35:27.614,2,416,207666,177289,79.0
2026-04-18T19:35:27.624,2,417,207666,177289,79.0
2026-04-18T19:35:27.633,2,418,207666,177289,79.0
2026-04-18T19:35:27.644,2,419,207666,177289,79.0
2026-04-18T19:35:27.654,2,420,207619,177170,79.0
2026-04-18T19:35:27.664,2,421,207619,177170,79.0
2026-04-18T19:35:27.674,2,422,207619,177170,79.0
2026-04-18T19:35:27.684,2,423,207619,177170,79.0
2026-04-18T19:35:27.694,2,424,207555,177037,79.0
2026-04-18T19:35:27.704,2,425,207555,177037,79.0
2026-04-18T19:35:27.714,2,426,207555,177037,79.0
2026-04-18T19:35:27.724,2,427,207555,177037,79.0
2026-04-18T19:35:27.734,2,428,207517,176975,79.0
2026-04-18T19:35:27.744,2,429,207517,176975,79.0
2026-04-18T19:35:27.754,2,430,207517,176975,79.0
2026-04-18T19:35:27.764,2,431,207517,176975,79.0
2026-04-18T19:35:27.774,2,432,207463,176840,79.0
2026-04-18T19:35:27.784,2,433,207463,176840,79.0
2026-04-18T19:35:27.794,2,434,207463,176840,79.0
2026-04-18T19:35:27.804,2,435,207463,176840,79.0
2026-04-18T19:35:27.814,2,436,207445,176819,79.0
2026-04-18T19:35:27.824,2,437,207445,176819,79.0
2026-04-18T19:35:27.834,2,438,207445,176819,79.0
2026-04-18T19:35:27.844,2,439,207445,176819,79.0
2026-04-18T19:35:27.854,2,440,207347,176548,79.0
2026-04-18T19:35:27.864,2,441,207347,176548,79.0
2026-04-18T19:35:27.874,2,442,207347,176548,79.0
2026-04-18T19:35:27.884,2,443,207347,176548,79.0
2026-04-18T19:35:27.893,2,444,207289,176398,79.0
2026-04-18T19:35:27.903,2,445,207289,176398,79.0
2026-04-18T19:35:27.913,2,446,207289,176398,79.0
2026-04-18T19:35:27.923,2,447,207289,176398,79.0
2026-04-18T19:35:27.933,2,448,207350,176484,79.0
2026-04-18T19:35:27.944,2,449,207350,176484,79.0
2026-04-18T19:35:27.953,2,450,207350,176484,79.0
2026-04-18T19:35:27.964,2,451,207350,176484,79.0
2026-04-18T19:35:27.973,2,452,207550,176810,79.0
2026-04-18T19:35:27.983,2,453,207550,176810,79.0
2026-04-18T19:35:27.993,2,454,207550,176810,79.0
2026-04-18T19:35:28.003,2,455,207550,176810,79.0
2026-04-18T19:35:28.013,2,456,207598,176839,79.0
2026-04-18T19:35:28.023,2,457,207598,176839,79.0
2026-04-18T19:35:28.034,2,458,207598,176839,79.0
2026-04-18T19:35:28.043,2,459,207598,176839,79.0
2026-04-18T19:35:28.053,2,460,207658,176989,79.0
2026-04-18T19:35:28.063,2,461,207658,176989,79.0
2026-04-18T19:35:28.073,2,462,207658,176989,79.0
2026-04-18T19:35:28.083,2,463,207658,176989,79.0
2026-04-18T19:35:28.094,2,464,207711,177072,79.0
2026-04-18T19:35:28.103,2,465,207711,177072,79.0
2026-04-18T19:35:28.113,2,466,207711,177072,79.0
2026-04-18T19:35:28.123,2,467,207711,177072,79.0
2026-04-18T19:35:28.133,2,468,207691,176911,79.0
2026-04-18T19:35:28.143,2,469,207691,176911,79.0
2026-04-18T19:35:28.153,2,470,207691,176911,79.0
2026-04-18T19:35:28.163,2,471,207691,176911,79.0
2026-04-18T19:35:28.173,2,472,207540,176612,79.0
2026-04-18T19:35:28.183,2,473,207540,176612,79.0
2026-04-18T19:35:28.193,2,474,207540,176612,79.0
2026-04-18T19:35:28.203,2,475,207540,176612,79.0
2026-04-18T19:35:28.213,2,476,207433,176372,79.0
2026-04-18T19:35:28.223,2,477,207433,176372,79.0
2026-04-18T19:35:28.233,2,478,207433,176372,79.0
2026-04-18T19:35:28.243,2,479,207433,176372,79.0
2026-04-18T19:35:28.253,2,480,207394,176212,79.0
2026-04-18T19:35:28.263,2,481,207394,176212,79.0
2026-04-18T19:35:28.273,2,482,207394,176212,79.0
2026-04-18T19:35:28.283,2,483,207394,176212,79.0
2026-04-18T19:35:28.293,2,484,207265,175889,79.0
2026-04-18T19:35:28.303,2,485,207265,175889,79.0
2026-04-18T19:35:28.313,2,486,207265,175889,79.0
2026-04-18T19:35:28.323,2,487,207265,175889,79.0
2026-04-18T19:35:28.333,2,488,207150,175656,79.0
2026-04-18T19:35:28.342,2,489,207150,175656,79.0
2026-04-18T19:35:28.353,2,490,207150,175656,79.0
2026-04-18T19:35:28.362,2,491,207150,175656,79.0
2026-04-18T19:35:28.373,2,492,206822,175011,79.0
2026-04-18T19:35:28.382,2,493,206822,175011,79.0
2026-04-18T19:35:28.392,2,494,206822,175011,79.0
2026-04-18T19:35:28.402,2,495,206822,175011,79.0
2026-04-18T19:35:28.413,2,496,206454,174232,79.0
2026-04-18T19:35:28.423,2,497,206454,174232,79.0
2026-04-18T19:35:28.433,2,498,206454,174232,79.0
2026-04-18T19:35:28.443,2,499,206454,174232,79.0
2026-04-18T19:35:28.452,2,500,206099,173458,79.0
2026-04-18T19:35:28.463,2,501,206099,173458,79.0
2026-04-18T19:35:28.473,2,502,206099,173458,79.0
2026-04-18T19:35:28.483,2,503,206099,173458,79.0
2026-04-18T19:35:28.493,2,504,205707,172674,79.0
2026-04-18T19:35:28.503,2,505,205707,172674,79.0
2026-04-18T19:35:28.513,2,506,205707,172674,79.0
2026-04-18T19:35:28.523,2,507,205707,172674,79.0
2026-04-18T19:35:28.533,2,508,205265,171820,79.0
2026-04-18T19:35:28.543,2,509,205265,171820,79.0
2026-04-18T19:35:28.553,2,510,205265,171820,79.0
2026-04-18T19:35:28.563,2,511,205265,171820,79.0
2026-04-18T19:35:28.573,2,512,204941,171213,79.0
2026-04-18T19:35:28.582,2,513,204941,171213,79.0
2026-04-18T19:35:28.593,2,514,204941,171213,79.0
2026-04-18T19:35:28.603,2,515,204941,171213,79.0
2026-04-18T19:35:28.613,2,516,204454,170244,79.0
2026-04-18T19:35:28.623,2,517,204454,170244,79.0
2026-04-18T19:35:28.633,2,518,204454,170244,79.0
2026-04-18T19:35:28.643,2,519,204454,170244,79.0
2026-04-18T19:35:28.652,2,520,204143,169602,79.0
2026-04-18T19:35:28.662,2,521,204143,169602,79.0
2026-04-18T19:35:28.673,2,522,204143,169602,79.0
2026-04-18T19:35:28.682,2,523,204143,169602,79.0
2026-04-18T19:35:28.692,2,524,203822,169000,79.0
2026-04-18T19:35:28.702,2,525,203822,169000,79.0
2026-04-18T19:35:28.712,2,526,203822,169000,79.0
2026-04-18T19:35:28.722,2,527,203822,169000,79.0
2026-04-18T19:35:28.732,2,528,203777,168950,79.0
2026-04-18T19:35:28.742,2,529,203777,168950,79.0
2026-04-18T19:35:28.752,2,530,203777,168950,79.0
2026-04-18T19:35:28.762,2,531,203777,168950,79.0
2026-04-18T19:35:28.772,2,532,203600,168606,79.0
2026-04-18T19:35:28.782,2,533,203600,168606,79.0
2026-04-18T19:35:28.792,2,534,203600,168606,79.0
2026-04-18T19:35:28.802,2,535,203600,168606,79.0
2026-04-18T19:35:28.812,2,536,203584,168621,79.0
2026-04-18T19:35:28.822,2,537,203584,168621,79.0
2026-04-18T19:35:28.832,2,538,203584,168621,79.0
2026-04-18T19:35:28.842,2,539,203584,168621,79.0
2026-04-18T19:35:28.852,2,540,203510,168522,79.0
2026-04-18T19:35:28.862,2,541,203510,168522,79.0
2026-04-18T19:35:28.872,2,542,203510,168522,79.0
2026-04-18T19:35:28.882,2,543,203510,168522,79.0
2026-04-18T19:35:28.892,2,544,203467,168479,79.0
2026-04-18T19:35:28.902,2,545,203467,168479,79.0
2026-04-18T19:35:28.912,2,546,203467,168479,79.0
2026-04-18T19:35:28.922,2,547,203467,168479,79.0
2026-04-18T19:35:28.932,2,548,203567,168713,79.0
2026-04-18T19:35:28.942,2,549,203567,168713,79.0
2026-04-18T19:35:28.952,2,550,203567,168713,79.0
2026-04-18T19:35:28.962,2,551,203567,168713,79.0
2026-04-18T19:35:28.972,2,552,203719,169063,79.0
2026-04-18T19:35:28.982,2,553,203719,169063,79.0
2026-04-18T19:35:28.992,2,554,203719,169063,79.0
2026-04-18T19:35:29.002,2,555,203719,169063,79.0
2026-04-18T19:35:29.012,2,556,203833,169290,79.0
2026-04-18T19:35:29.022,2,557,203833,169290,79.0
2026-04-18T19:35:29.032,2,558,203833,169290,79.0
2026-04-18T19:35:29.042,2,559,203833,169290,79.0
2026-04-18T19:35:29.052,2,560,203800,169248,79.0
2026-04-18T19:35:29.062,2,561,203800,169248,79.0
2026-04-18T19:35:29.072,2,562,203800,169248,79.0
2026-04-18T19:35:29.082,2,563,203800,169248,79.0
2026-04-18T19:35:29.093,2,564,203804,169250,79.0
2026-04-18T19:35:29.102,2,565,203804,169250,79.0
2026-04-18T19:35:29.112,2,566,203804,169250,79.0
2026-04-18T19:35:29.122,2,567,203804,169250,79.0
2026-04-18T19:35:29.132,2,568,203735,169099,79.0
2026-04-18T19:35:29.142,2,569,203735,169099,79.0
2026-04-18T19:35:29.152,2,570,203735,169099,79.0
2026-04-18T19:35:29.162,2,571,203735,169099,79.0
2026-04-18T19:35:29.172,2,572,203838,169234,79.0
2026-04-18T19:35:29.182,2,573,203838,169234,79.0
2026-04-18T19:35:29.192,2,574,203838,169234,79.0
2026-04-18T19:35:29.202,2,575,203838,169234,79.0
2026-04-18T19:35:29.212,2,576,203959,169478,79.0
2026-04-18T19:35:29.222,2,577,203959,169478,79.0
2026-04-18T19:35:29.232,2,578,203959,169478,79.0
2026-04-18T19:35:29.242,2,579,203959,169478,79.0
2026-04-18T19:35:29.252,2,580,204045,169616,79.0
2026-04-18T19:35:29.262,2,581,204045,169616,79.0
2026-04-18T19:35:29.272,2,582,204045,169616,79.0
2026-04-18T19:35:29.282,2,583,204045,169616,79.0
2026-04-18T19:35:29.292,2,584,204139,169805,79.0
2026-04-18T19:35:29.302,2,585,204139,169805,79.0
2026-04-18T19:35:29.312,2,586,204139,169805,79.0
2026-04-18T19:35:29.322,2,587,204139,169805,79.0
2026-04-18T19:35:29.332,2,588,204186,169832,79.0
2026-04-18T19:35:29.342,2,589,204186,169832,79.0
2026-04-18T19:35:29.352,2,590,204186,169832,79.0
2026-04-18T19:35:29.362,2,591,204186,169832,79.0
2026-04-18T19:35:29.372,2,592,204287,169988,79.0
2026-04-18T19:35:29.382,2,593,204287,169988,79.0
2026-04-18T19:35:29.392,2,594,204287,169988,79.0
2026-04-18T19:35:29.402,2,595,204287,169988,79.0
2026-04-18T19:35:29.412,2,596,204500,170337,79.0
2026-04-18T19:35:29.422,2,597,204500,170337,79.0
2026-04-18T19:35:29.431,2,598,204500,170337,79.0
2026-04-18T19:35:29.441,2,599,204500,170337,79.0
2026-04-18T19:35:29.451,2,600,204838,170929,79.0
2026-04-18T19:35:29.461,2,601,204838,170929,79.0
2026-04-18T19:35:29.471,2,602,204838,170929,79.0
2026-04-18T19:35:29.482,2,603,204838,170929,79.0
2026-04-18T19:35:29.492,2,604,205005,171244,79.0
2026-04-18T19:35:29.502,2,605,205005,171244,79.0
2026-04-18T19:35:29.512,2,606,205005,171244,79.0
2026-04-18T19:35:29.522,2,607,205005,171244,79.0
2026-04-18T19:35:29.532,2,608,205255,171789,79.0
2026-04-18T19:35:29.542,2,609,205255,171789,79.0
2026-04-18T19:35:29.551,2,610,205255,171789,79.0
2026-04-18T19:35:29.562,2,611,205255,171789,79.0
2026-04-18T19:35:29.572,2,612,205513,172337,79.0
2026-04-18T19:35:29.582,2,613,205513,172337,79.0
2026-04-18T19:35:29.592,2,614,205513,172337,79.0
2026-04-18T19:35:29.601,2,615,205513,172337,79.0
2026-04-18T19:35:29.611,2,616,205623,172640,79.0
2026-04-18T19:35:29.622,2,617,205623,172640,79.0
2026-04-18T19:35:29.631,2,618,205623,172640,79.0
2026-04-18T19:35:29.642,2,619,205623,172640,79.0
2026-04-18T19:35:29.652,2,620,205787,173065,79.0
2026-04-18T19:35:29.662,2,621,205787,173065,79.0
2026-04-18T19:35:29.672,2,622,205787,173065,79.0
2026-04-18T19:35:29.681,2,623,205787,173065,79.0
2026-04-18T19:35:29.691,2,624,206006,173597,79.0
2026-04-18T19:35:29.701,2,625,206006,173597,79.0
2026-04-18T19:35:29.711,2,626,206006,173597,79.0
2026-04-18T19:35:29.721,2,627,206006,173597,79.0
2026-04-18T19:35:29.732,2,628,206295,174123,79.0
2026-04-18T19:35:29.741,2,629,206295,174123,79.0
2026-04-18T19:35:29.751,2,630,206295,174123,79.0
2026-04-18T19:35:29.761,2,631,206295,174123,79.0
2026-04-18T19:35:29.771,2,632,206433,174398,79.0
2026-04-18T19:35:29.781,2,633,206433,174398,79.0
2026-04-18T19:35:29.791,2,634,206433,174398,79.0
2026-04-18T19:35:29.801,2,635,206433,174398,79.0
2026-04-18T19:35:29.811,2,636,206520,174609,79.0
2026-04-18T19:35:29.821,2,637,206520,174609,79.0
2026-04-18T19:35:29.831,2,638,206520,174609,79.0
2026-04-18T19:35:29.842,2,639,206520,174609,79.0
2026-04-18T19:35:29.851,2,640,206551,174718,79.0
2026-04-18T19:35:29.861,2,641,206551,174718,79.0
2026-04-18T19:35:29.871,2,642,206551,174718,79.0
2026-04-18T19:35:29.882,2,643,206551,174718,79.0
2026-04-18T19:35:29.891,2,644,206585,174756,79.0
2026-04-18T19:35:29.902,2,645,206585,174756,79.0
2026-04-18T19:35:29.911,2,646,206585,174756,79.0
2026-04-18T19:35:29.921,2,647,206585,174756,79.0
2026-04-18T19:35:29.931,2,648,206540,174700,79.0
2026-04-18T19:35:29.941,2,649,206540,174700,79.0
2026-04-18T19:35:29.951,2,650,206540,174700,79.0
2026-04-18T19:35:29.961,2,651,206540,174700,79.0
2026-04-18T19:35:29.971,2,652,206527,174747,79.0
2026-04-18T19:35:29.981,2,653,206527,174747,79.0
2026-04-18T19:35:29.991,2,654,206527,174747,79.0
2026-04-18T19:35:30.001,2,655,206527,174747,79.0
2026-04-18T19:35:30.011,2,656,206588,174859,79.0
2026-04-18T19:35:30.021,2,657,206588,174859,79.0
2026-04-18T19:35:30.031,2,658,206588,174859,79.0
2026-04-18T19:35:30.041,2,659,206588,174859,79.0
2026-04-18T19:35:30.051,2,660,206623,174918,79.0
2026-04-18T19:35:30.061,2,661,206623,174918,79.0
2026-04-18T19:35:30.071,2,662,206623,174918,79.0
2026-04-18T19:35:30.080,2,663,206623,174918,79.0
2026-04-18T19:35:30.091,2,664,206622,174867,79.0
2026-04-18T19:35:30.101,2,665,206622,174867,79.0
2026-04-18T19:35:30.111,2,666,206622,174867,79.0
2026-04-18T19:35:30.121,2,667,206622,174867,79.0
2026-04-18T19:35:30.131,2,668,206757,175056,79.0
2026-04-18T19:35:30.141,2,669,206757,175056,79.0
2026-04-18T19:35:30.151,2,670,206757,175056,79.0
2026-04-18T19:35:30.160,2,671,206757,175056,79.0
2026-04-18T19:35:30.171,2,672,206966,175415,79.0
2026-04-18T19:35:30.181,2,673,206966,175415,79.0
2026-04-18T19:35:30.191,2,674,206966,175415,79.0
2026-04-18T19:35:30.201,2,675,206966,175415,79.0
2026-04-18T19:35:30.211,2,676,207038,175549,79.0
2026-04-18T19:35:30.221,2,677,207038,175549,79.0
2026-04-18T19:35:30.231,2,678,207038,175549,79.0
2026-04-18T19:35:30.241,2,679,207038,175549,79.0
2026-04-18T19:35:30.251,2,680,207288,176134,79.0
2026-04-18T19:35:30.261,2,681,207288,176134,79.0
2026-04-18T19:35:30.271,2,682,207288,176134,79.0
2026-04-18T19:35:30.281,2,683,207288,176134,79.0
2026-04-18T19:35:30.291,2,684,207564,176779,79.0
2026-04-18T19:35:30.300,2,685,207564,176779,79.0
2026-04-18T19:35:30.311,2,686,207564,176779,79.0
2026-04-18T19:35:30.321,2,687,207564,176779,79.0
2026-04-18T19:35:30.331,2,688,207717,177172,79.0
2026-04-18T19:35:30.341,2,689,207717,177172,79.0
2026-04-18T19:35:30.351,2,690,207717,177172,79.0
2026-04-18T19:35:30.361,2,691,207717,177172,79.0
2026-04-18T19:35:30.370,2,692,207723,177279,79.0
2026-04-18T19:35:30.380,2,693,207723,177279,79.0
2026-04-18T19:35:30.390,2,694,207723,177279,79.0
2026-04-18T19:35:30.400,2,695,207723,177279,79.0
2026-04-18T19:35:30.410,2,696,207803,177442,79.0
2026-04-18T19:35:30.420,2,697,207803,177442,79.0
2026-04-18T19:35:30.430,2,698,207803,177442,79.0
2026-04-18T19:35:30.440,2,699,207803,177442,79.0
2026-04-18T19:35:30.450,2,700,207961,177707,79.0
2026-04-18T19:35:30.461,2,701,207961,177707,79.0
2026-04-18T19:35:30.470,2,702,207961,177707,79.0
2026-04-18T19:35:30.480,2,703,207961,177707,79.0
2026-04-18T19:35:30.490,2,704,207943,177664,79.0
2026-04-18T19:35:30.500,2,705,207943,177664,79.0
2026-04-18T19:35:30.510,2,706,207943,177664,79.0
2026-04-18T19:35:30.521,2,707,207943,177664,79.0
2026-04-18T19:35:30.531,2,708,207948,177757,79.0
2026-04-18T19:35:30.540,2,709,207948,177757,79.0
2026-04-18T19:35:30.551,2,710,207948,177757,79.0
2026-04-18T19:35:30.560,2,711,207948,177757,79.0
2026-04-18T19:35:30.570,2,712,207867,177604,79.0
2026-04-18T19:35:30.581,2,713,207867,177604,79.0
2026-04-18T19:35:30.591,2,714,207867,177604,79.0
2026-04-18T19:35:30.601,2,715,207867,177604,79.0
2026-04-18T19:35:30.610,2,716,207849,177533,79.0
2026-04-18T19:35:30.620,2,717,207849,177533,79.0
2026-04-18T19:35:30.630,2,718,207849,177533,79.0
2026-04-18T19:35:30.640,2,719,207849,177533,79.0
2026-04-18T19:35:30.650,2,720,207870,177617,79.0
2026-04-18T19:35:30.660,2,721,207870,177617,79.0
2026-04-18T19:35:30.670,2,722,207870,177617,79.0
2026-04-18T19:35:30.680,2,723,207870,177617,79.0
2026-04-18T19:35:30.690,2,724,207819,177485,79.0
2026-04-18T19:35:30.701,2,725,207819,177485,79.0
2026-04-18T19:35:30.710,2,726,207819,177485,79.0
2026-04-18T19:35:30.720,2,727,207819,177485,79.0
2026-04-18T19:35:30.730,2,728,207777,177366,79.0
2026-04-18T19:35:30.740,2,729,207777,177366,79.0
2026-04-18T19:35:30.750,2,730,207777,177366,79.0
2026-04-18T19:35:30.760,2,731,207777,177366,79.0
2026-04-18T19:35:30.770,2,732,207764,177307,79.0
2026-04-18T19:35:30.780,2,733,207764,177307,79.0
2026-04-18T19:35:30.790,2,734,207764,177307,79.0
2026-04-18T19:35:30.800,2,735,207764,177307,79.0
2026-04-18T19:35:30.810,2,736,207784,177251,79.0
2026-04-18T19:35:30.820,2,737,207784,177251,79.0
2026-04-18T19:35:30.830,2,738,207784,177251,79.0
2026-04-18T19:35:30.840,2,739,207784,177251,79.0
2026-04-18T19:35:30.850,2,740,207792,177278,79.0
2026-04-18T19:35:30.860,2,741,207792,177278,79.0
2026-04-18T19:35:30.870,2,742,207792,177278,79.0
2026-04-18T19:35:30.880,2,743,207792,177278,79.0
2026-04-18T19:35:30.890,2,744,207889,177397,79.0
2026-04-18T19:35:30.900,2,745,207889,177397,79.0
2026-04-18T19:35:30.910,2,746,207889,177397,79.0
2026-04-18T19:35:30.920,2,747,207889,177397,79.0
2026-04-18T19:35:30.930,2,748,207996,177549,79.0
2026-04-18T19:35:30.940,2,749,207996,177549,79.0
2026-04-18T19:35:30.950,2,750,207996,177549,79.0
2026-04-18T19:35:30.960,2,751,207996,177549,79.0
2026-04-18T19:35:30.969,2,752,207977,177532,79.0
2026-04-18T19:35:30.979,2,753,207977,177532,79.0
2026-04-18T19:35:30.989,2,754,207977,177532,79.0
2026-04-18T19:35:30.999,2,755,207977,177532,79.0
2026-04-18T19:35:31.009,2,756,208105,177792,79.0
2026-04-18T19:35:31.019,2,757,208105,177792,79.0
2026-04-18T19:35:31.029,2,758,208105,177792,79.0
2026-04-18T19:35:31.039,2,759,208105,177792,79.0
2026-04-18T19:35:31.049,2,760,208148,177848,79.0
2026-04-18T19:35:31.059,2,761,208148,177848,79.0
2026-04-18T19:35:31.069,2,762,208148,177848,79.0
2026-04-18T19:35:31.079,2,763,208148,177848,79.0
2026-04-18T19:35:31.089,2,764,208146,177821,79.0
2026-04-18T19:35:31.100,2,765,208146,177821,79.0
2026-04-18T19:35:31.109,2,766,208146,177821,79.0
2026-04-18T19:35:31.120,2,767,208146,177821,79.0
2026-04-18T19:35:31.130,2,768,208080,177668,79.0
2026-04-18T19:35:31.139,2,769,208080,177668,79.0
2026-04-18T19:35:31.150,2,770,208080,177668,79.0
2026-04-18T19:35:31.159,2,771,208080,177668,79.0
2026-04-18T19:35:31.170,2,772,208075,177555,79.0
2026-04-18T19:35:31.179,2,773,208075,177555,79.0
2026-04-18T19:35:31.190,2,774,208075,177555,79.0
2026-04-18T19:35:31.199,2,775,208075,177555,79.0
2026-04-18T19:35:31.210,2,776,207870,177076,79.0
2026-04-18T19:35:31.219,2,777,207870,177076,79.0
2026-04-18T19:35:31.230,2,778,207870,177076,79.0
2026-04-18T19:35:31.239,2,779,207870,177076,79.0
2026-04-18T19:35:31.250,2,780,207532,176339,79.0
2026-04-18T19:35:31.259,2,781,207532,176339,79.0
2026-04-18T19:35:31.269,2,782,207532,176339,79.0
2026-04-18T19:35:31.279,2,783,207532,176339,79.0
2026-04-18T19:35:31.289,2,784,207198,175670,79.0
2026-04-18T19:35:31.299,2,785,207198,175670,79.0
2026-04-18T19:35:31.309,2,786,207198,175670,79.0
2026-04-18T19:35:31.319,2,787,207198,175670,79.0
2026-04-18T19:35:31.329,2,788,206783,174811,79.0
2026-04-18T19:35:31.339,2,789,206783,174811,79.0
2026-04-18T19:35:31.350,2,790,206783,174811,79.0
2026-04-18T19:35:31.359,2,791,206783,174811,79.0
2026-04-18T19:35:31.369,2,792,206395,174044,79.0
2026-04-18T19:35:31.380,2,793,206395,174044,79.0
2026-04-18T19:35:31.389,2,794,206395,174044,79.0
2026-04-18T19:35:31.400,2,795,206395,174044,79.0
2026-04-18T19:35:31.409,2,796,205988,173313,79.0
2026-04-18T19:35:31.419,2,797,205988,173313,79.0
2026-04-18T19:35:31.429,2,798,205988,173313,79.0
2026-04-18T19:35:31.439,2,799,205988,173313,79.0
2026-04-18T19:35:31.450,2,800,205561,172512,79.0
2026-04-18T19:35:31.459,2,801,205561,172512,79.0
2026-04-18T19:35:31.469,2,802,205561,172512,79.0
2026-04-18T19:35:31.479,2,803,205561,172512,79.0
2026-04-18T19:35:31.489,2,804,205208,171868,79.0
2026-04-18T19:35:31.499,2,805,205208,171868,79.0
2026-04-18T19:35:31.509,2,806,205208,171868,79.0
2026-04-18T19:35:31.519,2,807,205208,171868,79.0
2026-04-18T19:35:31.529,2,808,204751,170976,79.0
2026-04-18T19:35:31.539,2,809,204751,170976,79.0
2026-04-18T19:35:31.549,2,810,204751,170976,79.0
2026-04-18T19:35:31.559,2,811,204751,170976,79.0
2026-04-18T19:35:31.569,2,812,204443,170319,79.0
2026-04-18T19:35:31.579,2,813,204443,170319,79.0
2026-04-18T19:35:31.589,2,814,204443,170319,79.0
2026-04-18T19:35:31.599,2,815,204443,170319,79.0
2026-04-18T19:35:31.609,2,816,204110,169712,79.0
2026-04-18T19:35:31.619,2,817,204110,169712,79.0
2026-04-18T19:35:31.629,2,818,204110,169712,79.0
2026-04-18T19:35:31.639,2,819,204110,169712,79.0
2026-04-18T19:35:31.649,2,820,204064,169597,79.0
2026-04-18T19:35:31.659,2,821,204064,169597,79.0
2026-04-18T19:35:31.669,2,822,204064,169597,79.0
2026-04-18T19:35:31.679,2,823,204064,169597,79.0
2026-04-18T19:35:31.689,2,824,203882,169223,79.0
2026-04-18T19:35:31.699,2,825,203882,169223,79.0
2026-04-18T19:35:31.709,2,826,203882,169223,79.0
2026-04-18T19:35:31.719,2,827,203882,169223,79.0
2026-04-18T19:35:31.729,2,828,203888,169242,79.0
2026-04-18T19:35:31.739,2,829,203888,169242,79.0
2026-04-18T19:35:31.749,2,830,203888,169242,79.0
2026-04-18T19:35:31.759,2,831,203888,169242,79.0
2026-04-18T19:35:31.769,2,832,203872,169297,79.0
2026-04-18T19:35:31.779,2,833,203872,169297,79.0
2026-04-18T19:35:31.789,2,834,203872,169297,79.0
2026-04-18T19:35:31.799,2,835,203872,169297,79.0
2026-04-18T19:35:31.809,2,836,203764,169123,79.0
2026-04-18T19:35:31.820,2,837,203764,169123,79.0
2026-04-18T19:35:31.829,2,838,203764,169123,79.0
2026-04-18T19:35:31.839,2,839,203764,169123,79.0
2026-04-18T19:35:31.849,2,840,203735,169145,79.0
2026-04-18T19:35:31.858,2,841,203735,169145,79.0
2026-04-18T19:35:31.868,2,842,203735,169145,79.0
2026-04-18T19:35:31.879,2,843,203735,169145,79.0
2026-04-18T19:35:31.889,2,844,203743,169206,79.0
2026-04-18T19:35:31.898,2,845,203743,169206,79.0
2026-04-18T19:35:31.908,2,846,203743,169206,79.0
2026-04-18T19:35:31.919,2,847,203743,169206,79.0
2026-04-18T19:35:31.928,2,848,203859,169405,79.0
2026-04-18T19:35:31.938,2,849,203859,169405,79.0
2026-04-18T19:35:31.948,2,850,203859,169405,79.0
2026-04-18T19:35:31.958,2,851,203859,169405,79.0
2026-04-18T19:35:31.968,2,852,203847,169390,79.0
2026-04-18T19:35:31.978,2,853,203847,169390,79.0
2026-04-18T19:35:31.988,2,854,203847,169390,79.0
2026-04-18T19:35:31.998,2,855,203847,169390,79.0
2026-04-18T19:35:32.008,2,856,203896,169516,79.0
2026-04-18T19:35:32.018,2,857,203896,169516,79.0
2026-04-18T19:35:32.028,2,858,203896,169516,79.0
2026-04-18T19:35:32.038,2,859,203896,169516,79.0
2026-04-18T19:35:32.048,2,860,203955,169650,79.0
2026-04-18T19:35:32.059,2,861,203955,169650,79.0
2026-04-18T19:35:32.069,2,862,203955,169650,79.0
2026-04-18T19:35:32.079,2,863,203955,169650,79.0
2026-04-18T19:35:32.089,2,864,204081,169923,79.0
2026-04-18T19:35:32.099,2,865,204081,169923,79.0
2026-04-18T19:35:32.109,2,866,204081,169923,79.0
2026-04-18T19:35:32.118,2,867,204081,169923,79.0
2026-04-18T19:35:32.128,2,868,204177,170053,79.0
2026-04-18T19:35:32.138,2,869,204177,170053,79.0
2026-04-18T19:35:32.148,2,870,204177,170053,79.0
2026-04-18T19:35:32.159,2,871,204177,170053,79.0
2026-04-18T19:35:32.169,2,872,204281,170246,79.0
2026-04-18T19:35:32.179,2,873,204281,170246,79.0
2026-04-18T19:35:32.188,2,874,204281,170246,79.0
2026-04-18T19:35:32.199,2,875,204281,170246,79.0
2026-04-18T19:35:32.208,2,876,204417,170496,79.0
2026-04-18T19:35:32.219,2,877,204417,170496,79.0
2026-04-18T19:35:32.229,2,878,204417,170496,79.0
2026-04-18T19:35:32.238,2,879,204417,170496,79.0
2026-04-18T19:35:32.248,2,880,204480,170598,79.0
2026-04-18T19:35:32.258,2,881,204480,170598,79.0
2026-04-18T19:35:32.268,2,882,204480,170598,79.0
2026-04-18T19:35:32.278,2,883,204480,170598,79.0
2026-04-18T19:35:32.288,2,884,204638,170809,79.0
2026-04-18T19:35:32.298,2,885,204638,170809,79.0
2026-04-18T19:35:32.308,2,886,204638,170809,79.0
2026-04-18T19:35:32.318,2,887,204638,170809,79.0
2026-04-18T19:35:32.328,2,888,204834,171116,79.0
2026-04-18T19:35:32.339,2,889,204834,171116,79.0
2026-04-18T19:35:32.348,2,890,204834,171116,79.0
2026-04-18T19:35:32.358,2,891,204834,171116,79.0
2026-04-18T19:35:32.368,2,892,205234,171827,79.0
2026-04-18T19:35:32.378,2,893,205234,171827,79.0
2026-04-18T19:35:32.388,2,894,205234,171827,79.0
2026-04-18T19:35:32.398,2,895,205234,171827,79.0
2026-04-18T19:35:32.408,2,896,205652,172626,79.0
2026-04-18T19:35:32.418,2,897,205652,172626,79.0
2026-04-18T19:35:32.428,2,898,205652,172626,79.0
2026-04-18T19:35:32.438,2,899,205652,172626,79.0
2026-04-18T19:35:32.448,2,900,206071,173526,79.0
2026-04-18T19:35:32.457,2,901,206071,173526,79.0
2026-04-18T19:35:32.467,2,902,206071,173526,79.0
2026-04-18T19:35:32.477,2,903,206071,173526,79.0
2026-04-18T19:35:32.487,2,904,206339,174123,79.0
2026-04-18T19:35:32.497,2,905,206339,174123,79.0
2026-04-18T19:35:32.508,2,906,206339,174123,79.0
2026-04-18T19:35:32.519,2,907,206339,174123,79.0
2026-04-18T19:35:32.528,2,908,206543,174614,79.0
2026-04-18T19:35:32.538,2,909,206543,174614,79.0
2026-04-18T19:35:32.548,2,910,206543,174614,79.0
2026-04-18T19:35:32.558,2,911,206543,174614,79.0
2026-04-18T19:35:32.568,2,912,206736,175101,79.0
2026-04-18T19:35:32.577,2,913,206736,175101,79.0
2026-04-18T19:35:32.588,2,914,206736,175101,79.0
2026-04-18T19:35:32.598,2,915,206736,175101,79.0
2026-04-18T19:35:32.608,2,916,206988,175672,79.0
2026-04-18T19:35:32.618,2,917,206988,175672,79.0
2026-04-18T19:35:32.628,2,918,206988,175672,79.0
2026-04-18T19:35:32.637,2,919,206988,175672,79.0
2026-04-18T19:35:32.648,2,920,207262,176170,79.0
2026-04-18T19:35:32.658,2,921,207262,176170,79.0
2026-04-18T19:35:32.668,2,922,207262,176170,79.0
2026-04-18T19:35:32.678,2,923,207262,176170,79.0
2026-04-18T19:35:32.688,2,924,207342,176348,79.0
2026-04-18T19:35:32.698,2,925,207342,176348,79.0
2026-04-18T19:35:32.708,2,926,207342,176348,79.0
2026-04-18T19:35:32.718,2,927,207342,176348,79.0
2026-04-18T19:35:32.728,2,928,207352,176413,79.0
2026-04-18T19:35:32.738,2,929,207352,176413,79.0
2026-04-18T19:35:32.748,2,930,207352,176413,79.0
2026-04-18T19:35:32.758,2,931,207352,176413,79.0
2026-04-18T19:35:32.767,2,932,207307,176433,79.0
2026-04-18T19:35:32.777,2,933,207307,176433,79.0
2026-04-18T19:35:32.787,2,934,207307,176433,79.0
2026-04-18T19:35:32.797,2,935,207307,176433,79.0
2026-04-18T19:35:32.807,2,936,207332,176433,79.0
2026-04-18T19:35:32.817,2,937,207332,176433,79.0
2026-04-18T19:35:32.827,2,938,207332,176433,79.0
2026-04-18T19:35:32.837,2,939,207332,176433,79.0
2026-04-18T19:35:32.847,2,940,207297,176388,79.0
2026-04-18T19:35:32.858,2,941,207297,176388,79.0
2026-04-18T19:35:32.867,2,942,207297,176388,79.0
2026-04-18T19:35:32.878,2,943,207297,176388,79.0
2026-04-18T19:35:32.887,2,944,207235,176290,79.0
2026-04-18T19:35:32.897,2,945,207235,176290,79.0
2026-04-18T19:35:32.907,2,946,207235,176290,79.0
2026-04-18T19:35:32.917,2,947,207235,176290,79.0
2026-04-18T19:35:32.928,2,948,207186,176189,79.0
2026-04-18T19:35:32.937,2,949,207186,176189,79.0
2026-04-18T19:35:32.948,2,950,207186,176189,79.0
2026-04-18T19:35:32.957,2,951,207186,176189,79.0
2026-04-18T19:35:32.968,2,952,207198,176251,79.0
2026-04-18T19:35:32.977,2,953,207198,176251,79.0
2026-04-18T19:35:32.988,2,954,207198,176251,79.0
2026-04-18T19:35:32.998,2,955,207198,176251,79.0
2026-04-18T19:35:33.007,2,956,207117,176033,79.0
2026-04-18T19:35:33.018,2,957,207117,176033,79.0
2026-04-18T19:35:33.027,2,958,207117,176033,79.0
2026-04-18T19:35:33.037,2,959,207117,176033,79.0
2026-04-18T19:35:33.047,2,960,207017,175817,79.0
2026-04-18T19:35:33.057,2,961,207017,175817,79.0
2026-04-18T19:35:33.067,2,962,207017,175817,79.0
2026-04-18T19:35:33.077,2,963,207017,175817,79.0
2026-04-18T19:35:33.087,2,964,207080,175917,79.0
2026-04-18T19:35:33.097,2,965,207080,175917,79.0
2026-04-18T19:35:33.107,2,966,207080,175917,79.0
2026-04-18T19:35:33.117,2,967,207080,175917,79.0
2026-04-18T19:35:33.127,2,968,207231,176172,79.0
2026-04-18T19:35:33.137,2,969,207231,176172,79.0
2026-04-18T19:35:33.147,2,970,207231,176172,79.0
2026-04-18T19:35:33.157,2,971,207231,176172,79.0
2026-04-18T19:35:33.167,2,972,207265,176219,79.0
2026-04-18T19:35:33.177,2,973,207265,176219,79.0
2026-04-18T19:35:33.187,2,974,207265,176219,79.0
2026-04-18T19:35:33.197,2,975,207265,176219,79.0
2026-04-18T19:35:33.207,2,976,207366,176506,79.0
2026-04-18T19:35:33.217,2,977,207366,176506,79.0
2026-04-18T19:35:33.227,2,978,207366,176506,79.0
2026-04-18T19:35:33.237,2,979,207366,176506,79.0
2026-04-18T19:35:33.247,2,980,207453,176757,79.0
2026-04-18T19:35:33.257,2,981,207453,176757,79.0
2026-04-18T19:35:33.267,2,982,207453,176757,79.0
2026-04-18T19:35:33.277,2,983,207453,176757,79.0
2026-04-18T19:35:33.287,2,984,207476,176880,79.0
2026-04-18T19:35:33.297,2,985,207476,176880,79.0
2026-04-18T19:35:33.307,2,986,207476,176880,79.0
2026-04-18T19:35:33.317,2,987,207476,176880,79.0
2026-04-18T19:35:33.328,2,988,207447,177048,79.0
2026-04-18T19:35:33.337,2,989,207447,177048,79.0
2026-04-18T19:35:33.347,2,990,207447,177048,79.0
2026-04-18T19:35:33.357,2,991,207447,177048,79.0
2026-04-18T19:35:33.367,2,992,207442,177086,79.0
2026-04-18T19:35:33.377,2,993,207442,177086,79.0
2026-04-18T19:35:33.387,2,994,207442,177086,79.0
2026-04-18T19:35:33.397,2,995,207442,177086,79.0
2026-04-18T19:35:33.407,2,996,207495,177130,79.0
2026-04-18T19:35:33.417,2,997,207495,177130,79.0
2026-04-18T19:35:33.427,2,998,207495,177130,79.0
2026-04-18T19:35:33.437,2,999,207495,177130,79.0
2026-04-18T19:35:33.447,2,1000,207419,177012,79.0
2026-04-18T19:35:33.457,2,1001,207419,177012,79.0
2026-04-18T19:35:38.860,3,0,206811,175133,80.0
2026-04-18T19:35:38.870,3,1,206811,175133,80.0
2026-04-18T19:35:38.879,3,2,206713,174913,80.0
2026-04-18T19:35:38.889,3,3,206713,174913,80.0
2026-04-18T19:35:38.900,3,4,206713,174913,80.0
2026-04-18T19:35:38.910,3,5,206713,174913,80.0
2026-04-18T19:35:38.920,3,6,206750,175004,80.0
2026-04-18T19:35:38.930,3,7,206750,175004,80.0
2026-04-18T19:35:38.940,3,8,206750,175004,80.0
2026-04-18T19:35:38.950,3,9,206750,175004,80.0
2026-04-18T19:35:38.960,3,10,206784,175066,80.0
2026-04-18T19:35:38.970,3,11,206784,175066,80.0
2026-04-18T19:35:38.980,3,12,206784,175066,80.0
2026-04-18T19:35:38.990,3,13,206784,175066,80.0
2026-04-18T19:35:39.000,3,14,206819,175095,80.0
2026-04-18T19:35:39.010,3,15,206819,175095,80.0
2026-04-18T19:35:39.020,3,16,206819,175095,80.0
2026-04-18T19:35:39.030,3,17,206819,175095,80.0
2026-04-18T19:35:39.040,3,18,206714,174780,80.0
2026-04-18T19:35:39.050,3,19,206714,174780,80.0
2026-04-18T19:35:39.060,3,20,206714,174780,80.0
2026-04-18T19:35:39.070,3,21,206714,174780,80.0
2026-04-18T19:35:39.080,3,22,206652,174548,80.0
2026-04-18T19:35:39.090,3,23,206652,174548,80.0
2026-04-18T19:35:39.100,3,24,206652,174548,80.0
2026-04-18T19:35:39.110,3,25,206652,174548,80.0
2026-04-18T19:35:39.119,3,26,206645,174465,80.0
2026-04-18T19:35:39.129,3,27,206645,174465,80.0
2026-04-18T19:35:39.139,3,28,206645,174465,80.0
2026-04-18T19:35:39.150,3,29,206645,174465,80.0
2026-04-18T19:35:39.160,3,30,206548,174216,80.0
2026-04-18T19:35:39.169,3,31,206548,174216,80.0
2026-04-18T19:35:39.180,3,32,206548,174216,80.0
2026-04-18T19:35:39.190,3,33,206548,174216,80.0
2026-04-18T19:35:39.200,3,34,206386,173813,80.0
2026-04-18T19:35:39.210,3,35,206386,173813,80.0
2026-04-18T19:35:39.219,3,36,206386,173813,80.0
2026-04-18T19:35:39.229,3,37,206386,173813,80.0
2026-04-18T19:35:39.239,3,38,206081,173146,80.0
2026-04-18T19:35:39.250,3,39,206081,173146,80.0
2026-04-18T19:35:39.259,3,40,206081,173146,80.0
2026-04-18T19:35:39.269,3,41,206081,173146,80.0
2026-04-18T19:35:39.280,3,42,205519,172151,80.0
2026-04-18T19:35:39.290,3,43,205519,172151,80.0
2026-04-18T19:35:39.300,3,44,205519,172151,80.0
2026-04-18T19:35:39.310,3,45,205519,172151,80.0
2026-04-18T19:35:39.320,3,46,204800,170863,80.0
2026-04-18T19:35:39.329,3,47,204800,170863,80.0
2026-04-18T19:35:39.339,3,48,204800,170863,80.0
2026-04-18T19:35:39.349,3,49,204800,170863,80.0
2026-04-18T19:35:39.359,3,50,204131,169636,80.0
2026-04-18T19:35:39.369,3,51,204131,169636,80.0
2026-04-18T19:35:39.380,3,52,204131,169636,80.0
2026-04-18T19:35:39.390,3,53,204131,169636,80.0
2026-04-18T19:35:39.400,3,54,203390,168369,80.0
2026-04-18T19:35:39.410,3,55,203390,168369,80.0
2026-04-18T19:35:39.419,3,56,203390,168369,80.0
2026-04-18T19:35:39.430,3,57,203390,168369,80.0
2026-04-18T19:35:39.439,3,58,202704,167151,80.0
2026-04-18T19:35:39.450,3,59,202704,167151,80.0
2026-04-18T19:35:39.460,3,60,202704,167151,80.0
2026-04-18T19:35:39.470,3,61,202704,167151,80.0
2026-04-18T19:35:39.479,3,62,202059,166097,80.0
2026-04-18T19:35:39.489,3,63,202059,166097,80.0
2026-04-18T19:35:39.499,3,64,202059,166097,80.0
2026-04-18T19:35:39.509,3,65,202059,166097,80.0
2026-04-18T19:35:39.519,3,66,201488,165214,80.0
2026-04-18T19:35:39.529,3,67,201488,165214,80.0
2026-04-18T19:35:39.539,3,68,201488,165214,80.0
2026-04-18T19:35:39.549,3,69,201488,165214,80.0
2026-04-18T19:35:39.559,3,70,200895,164259,80.0
2026-04-18T19:35:39.569,3,71,200895,164259,80.0
2026-04-18T19:35:39.579,3,72,200895,164259,80.0
2026-04-18T19:35:39.590,3,73,200895,164259,80.0
2026-04-18T19:35:39.599,3,74,200340,163859,80.0
2026-04-18T19:35:39.609,3,75,200340,163859,80.0
2026-04-18T19:35:39.619,3,76,200340,163859,80.0
2026-04-18T19:35:39.629,3,77,200340,163859,80.0
2026-04-18T19:35:39.639,3,78,199941,163282,80.0
2026-04-18T19:35:39.649,3,79,199941,163282,80.0
2026-04-18T19:35:39.659,3,80,199941,163282,80.0
2026-04-18T19:35:39.669,3,81,199941,163282,80.0
2026-04-18T19:35:39.679,3,82,199574,162765,80.0
2026-04-18T19:35:39.689,3,83,199574,162765,80.0
2026-04-18T19:35:39.698,3,84,199574,162765,80.0
2026-04-18T19:35:39.708,3,85,199574,162765,80.0
2026-04-18T19:35:39.719,3,86,199258,162340,80.0
2026-04-18T19:35:39.729,3,87,199258,162340,80.0
2026-04-18T19:35:39.739,3,88,199258,162340,80.0
2026-04-18T19:35:39.749,3,89,199258,162340,80.0
2026-04-18T19:35:39.759,3,90,199036,162071,80.0
2026-04-18T19:35:39.769,3,91,199036,162071,80.0
2026-04-18T19:35:39.779,3,92,199036,162071,80.0
2026-04-18T19:35:39.789,3,93,199036,162071,80.0
2026-04-18T19:35:39.799,3,94,198682,161501,80.0
2026-04-18T19:35:39.808,3,95,198682,161501,80.0
2026-04-18T19:35:39.818,3,96,198682,161501,80.0
2026-04-18T19:35:39.828,3,97,198682,161501,80.0
2026-04-18T19:35:39.838,3,98,198344,161061,80.0
2026-04-18T19:35:39.848,3,99,198344,161061,80.0
2026-04-18T19:35:39.858,3,100,198344,161061,80.0
2026-04-18T19:35:39.868,3,101,198344,161061,80.0
2026-04-18T19:35:39.878,3,102,198072,160688,80.0
2026-04-18T19:35:39.888,3,103,198072,160688,80.0
2026-04-18T19:35:39.898,3,104,198072,160688,80.0
2026-04-18T19:35:39.908,3,105,198072,160688,80.0
2026-04-18T19:35:39.918,3,106,197930,160511,80.0
2026-04-18T19:35:39.929,3,107,197930,160511,80.0
2026-04-18T19:35:39.938,3,108,197930,160511,80.0
2026-04-18T19:35:39.948,3,109,197930,160511,80.0
2026-04-18T19:35:39.958,3,110,197974,160672,80.0
2026-04-18T19:35:39.968,3,111,197974,160672,80.0
2026-04-18T19:35:39.978,3,112,197974,160672,80.0
2026-04-18T19:35:39.988,3,113,197974,160672,80.0
2026-04-18T19:35:39.998,3,114,197932,160775,80.0
2026-04-18T19:35:40.008,3,115,197932,160775,80.0
2026-04-18T19:35:40.018,3,116,197932,160775,80.0
2026-04-18T19:35:40.028,3,117,197932,160775,80.0
2026-04-18T19:35:40.038,3,118,197835,160738,80.0
2026-04-18T19:35:40.048,3,119,197835,160738,80.0
2026-04-18T19:35:40.058,3,120,197835,160738,80.0
2026-04-18T19:35:40.068,3,121,197835,160738,80.0
2026-04-18T19:35:40.079,3,122,197899,161033,80.0
2026-04-18T19:35:40.088,3,123,197899,161033,80.0
2026-04-18T19:35:40.099,3,124,197899,161033,80.0
2026-04-18T19:35:40.108,3,125,197899,161033,80.0
2026-04-18T19:35:40.118,3,126,197836,161119,80.0
2026-04-18T19:35:40.129,3,127,197836,161119,80.0
2026-04-18T19:35:40.138,3,128,197836,161119,80.0
2026-04-18T19:35:40.149,3,129,197836,161119,80.0
2026-04-18T19:35:40.158,3,130,197889,161459,80.0
2026-04-18T19:35:40.168,3,131,197889,161459,80.0
2026-04-18T19:35:40.178,3,132,197889,161459,80.0
2026-04-18T19:35:40.188,3,133,197889,161459,80.0
2026-04-18T19:35:40.198,3,134,197866,161619,80.0
2026-04-18T19:35:40.208,3,135,197866,161619,80.0
2026-04-18T19:35:40.218,3,136,197866,161619,80.0
2026-04-18T19:35:40.229,3,137,197866,161619,80.0
2026-04-18T19:35:40.238,3,138,197744,161621,80.0
2026-04-18T19:35:40.248,3,139,197744,161621,80.0
2026-04-18T19:35:40.258,3,140,197744,161621,80.0
2026-04-18T19:35:40.268,3,141,197744,161621,80.0
2026-04-18T19:35:40.278,3,142,197675,161649,80.0
2026-04-18T19:35:40.288,3,143,197675,161649,80.0
2026-04-18T19:35:40.299,3,144,197675,161649,80.0
2026-04-18T19:35:40.308,3,145,197675,161649,80.0
2026-04-18T19:35:40.318,3,146,197567,161617,80.0
2026-04-18T19:35:40.328,3,147,197567,161617,80.0
2026-04-18T19:35:40.338,3,148,197567,161617,80.0
2026-04-18T19:35:40.349,3,149,197567,161617,80.0
2026-04-18T19:35:40.358,3,150,197227,161147,80.0
2026-04-18T19:35:40.367,3,151,197227,161147,80.0
2026-04-18T19:35:40.378,3,152,197227,161147,80.0
2026-04-18T19:35:40.388,3,153,197227,161147,80.0
2026-04-18T19:35:40.398,3,154,196886,160573,80.0
2026-04-18T19:35:40.408,3,155,196886,160573,80.0
2026-04-18T19:35:40.418,3,156,196886,160573,80.0
2026-04-18T19:35:40.428,3,157,196886,160573,80.0
2026-04-18T19:35:40.438,3,158,196756,160308,80.0
2026-04-18T19:35:40.448,3,159,196756,160308,80.0
2026-04-18T19:35:40.458,3,160,196756,160308,80.0
2026-04-18T19:35:40.468,3,161,196756,160308,80.0
2026-04-18T19:35:40.478,3,162,196760,160143,80.0
2026-04-18T19:35:40.488,3,163,196760,160143,80.0
2026-04-18T19:35:40.498,3,164,196760,160143,80.0
2026-04-18T19:35:40.508,3,165,196760,160143,80.0
2026-04-18T19:35:40.518,3,166,196816,160031,80.0
2026-04-18T19:35:40.528,3,167,196816,160031,80.0
2026-04-18T19:35:40.538,3,168,196816,160031,80.0
2026-04-18T19:35:40.548,3,169,196816,160031,80.0
2026-04-18T19:35:40.558,3,170,196900,160064,80.0
2026-04-18T19:35:40.568,3,171,196900,160064,80.0
2026-04-18T19:35:40.578,3,172,196900,160064,80.0
2026-04-18T19:35:40.588,3,173,196900,160064,80.0
2026-04-18T19:35:40.598,3,174,197119,160355,80.0
2026-04-18T19:35:40.608,3,175,197119,160355,80.0
2026-04-18T19:35:40.618,3,176,197119,160355,80.0
2026-04-18T19:35:40.628,3,177,197119,160355,80.0
2026-04-18T19:35:40.638,3,178,197403,160711,80.0
2026-04-18T19:35:40.647,3,179,197403,160711,80.0
2026-04-18T19:35:40.658,3,180,197403,160711,80.0
2026-04-18T19:35:40.667,3,181,197403,160711,80.0
2026-04-18T19:35:40.677,3,182,197633,161067,80.0
2026-04-18T19:35:40.687,3,183,197633,161067,80.0
2026-04-18T19:35:40.697,3,184,197633,161067,80.0
2026-04-18T19:35:40.707,3,185,197633,161067,80.0
2026-04-18T19:35:40.717,3,186,197753,161226,80.0
2026-04-18T19:35:40.727,3,187,197753,161226,80.0
2026-04-18T19:35:40.737,3,188,197753,161226,80.0
2026-04-18T19:35:40.747,3,189,197753,161226,80.0
2026-04-18T19:35:40.757,3,190,197998,161623,80.0
2026-04-18T19:35:40.767,3,191,197998,161623,80.0
2026-04-18T19:35:40.777,3,192,197998,161623,80.0
2026-04-18T19:35:40.788,3,193,197998,161623,80.0
2026-04-18T19:35:40.798,3,194,198245,162090,80.0
2026-04-18T19:35:40.808,3,195,198245,162090,80.0
2026-04-18T19:35:40.817,3,196,198245,162090,80.0
2026-04-18T19:35:40.828,3,197,198245,162090,80.0
2026-04-18T19:35:40.837,3,198,198456,162400,80.0
2026-04-18T19:35:40.848,3,199,198456,162400,80.0
2026-04-18T19:35:40.857,3,200,198456,162400,80.0
2026-04-18T19:35:40.867,3,201,198456,162400,80.0
2026-04-18T19:35:40.877,3,202,198736,162877,80.0
2026-04-18T19:35:40.887,3,203,198736,162877,80.0
2026-04-18T19:35:40.898,3,204,198736,162877,80.0
2026-04-18T19:35:40.907,3,205,198736,162877,80.0
2026-04-18T19:35:40.917,3,206,198940,163211,80.0
2026-04-18T19:35:40.927,3,207,198940,163211,80.0
2026-04-18T19:35:40.937,3,208,198940,163211,80.0
2026-04-18T19:35:40.947,3,209,198940,163211,80.0
2026-04-18T19:35:40.957,3,210,199051,163337,80.0
2026-04-18T19:35:40.967,3,211,199051,163337,80.0
2026-04-18T19:35:40.977,3,212,199051,163337,80.0
2026-04-18T19:35:40.987,3,213,199051,163337,80.0
2026-04-18T19:35:40.997,3,214,199182,163424,80.0
2026-04-18T19:35:41.007,3,215,199182,163424,80.0
2026-04-18T19:35:41.017,3,216,199182,163424,80.0
2026-04-18T19:35:41.027,3,217,199182,163424,80.0
2026-04-18T19:35:41.037,3,218,199257,163424,80.0
2026-04-18T19:35:41.047,3,219,199257,163424,80.0
2026-04-18T19:35:41.057,3,220,199257,163424,80.0
2026-04-18T19:35:41.067,3,221,199257,163424,80.0
2026-04-18T19:35:41.077,3,222,199512,163812,80.0
2026-04-18T19:35:41.087,3,223,199512,163812,80.0
2026-04-18T19:35:41.097,3,224,199512,163812,80.0
2026-04-18T19:35:41.107,3,225,199512,163812,80.0
2026-04-18T19:35:41.117,3,226,199679,164094,80.0
2026-04-18T19:35:41.127,3,227,199679,164094,80.0
2026-04-18T19:35:41.137,3,228,199679,164094,80.0
2026-04-18T19:35:41.147,3,229,199679,164094,80.0
2026-04-18T19:35:41.157,3,230,199918,164497,80.0
2026-04-18T19:35:41.167,3,231,199918,164497,80.0
2026-04-18T19:35:41.177,3,232,199918,164497,80.0
2026-04-18T19:35:41.187,3,233,199918,164497,80.0
2026-04-18T19:35:41.197,3,234,200067,164733,80.0
2026-04-18T19:35:41.207,3,235,200067,164733,80.0
2026-04-18T19:35:41.217,3,236,200067,164733,80.0
2026-04-18T19:35:41.227,3,237,200067,164733,80.0
2026-04-18T19:35:41.237,3,238,200085,164687,80.0
2026-04-18T19:35:41.247,3,239,200085,164687,80.0
2026-04-18T19:35:41.257,3,240,200085,164687,80.0
2026-04-18T19:35:41.267,3,241,200085,164687,80.0
2026-04-18T19:35:41.277,3,242,200088,164547,80.0
2026-04-18T19:35:41.286,3,243,200088,164547,80.0
2026-04-18T19:35:41.297,3,244,200088,164547,80.0
2026-04-18T19:35:41.307,3,245,200088,164547,80.0
2026-04-18T19:35:41.317,3,246,200048,164340,80.0
2026-04-18T19:35:41.327,3,247,200048,164340,80.0
2026-04-18T19:35:41.337,3,248,200048,164340,80.0
2026-04-18T19:35:41.347,3,249,200048,164340,80.0
2026-04-18T19:35:41.357,3,250,200305,164732,80.0
2026-04-18T19:35:41.367,3,251,200305,164732,80.0
2026-04-18T19:35:41.377,3,252,200305,164732,80.0
2026-04-18T19:35:41.387,3,253,200305,164732,80.0
2026-04-18T19:35:41.396,3,254,200433,164860,80.0
2026-04-18T19:35:41.406,3,255,200433,164860,80.0
2026-04-18T19:35:41.416,3,256,200433,164860,80.0
2026-04-18T19:35:41.427,3,257,200433,164860,80.0
2026-04-18T19:35:41.436,3,258,200639,165147,80.0
2026-04-18T19:35:41.447,3,259,200639,165147,80.0
2026-04-18T19:35:41.456,3,260,200639,165147,80.0
2026-04-18T19:35:41.467,3,261,200639,165147,80.0
2026-04-18T19:35:41.476,3,262,200911,165622,80.0
2026-04-18T19:35:41.487,3,263,200911,165622,80.0
2026-04-18T19:35:41.496,3,264,200911,165622,80.0
2026-04-18T19:35:41.507,3,265,200911,165622,80.0
2026-04-18T19:35:41.517,3,266,201068,165883,80.0
2026-04-18T19:35:41.527,3,267,201068,165883,80.0
2026-04-18T19:35:41.536,3,268,201068,165883,80.0
2026-04-18T19:35:41.547,3,269,201068,165883,80.0
2026-04-18T19:35:41.556,3,270,201360,166498,80.0
2026-04-18T19:35:41.566,3,271,201360,166498,80.0
2026-04-18T19:35:41.577,3,272,201360,166498,80.0
2026-04-18T19:35:41.586,3,273,201360,166498,80.0
2026-04-18T19:35:41.597,3,274,201675,167409,80.0
2026-04-18T19:35:41.606,3,275,201675,167409,80.0
2026-04-18T19:35:41.616,3,276,201675,167409,80.0
2026-04-18T19:35:41.627,3,277,201675,167409,80.0
2026-04-18T19:35:41.636,3,278,201986,168189,80.0
2026-04-18T19:35:41.646,3,279,201986,168189,80.0
2026-04-18T19:35:41.656,3,280,201986,168189,80.0
2026-04-18T19:35:41.666,3,281,201986,168189,80.0
2026-04-18T19:35:41.676,3,282,202081,168550,80.0
2026-04-18T19:35:41.686,3,283,202081,168550,80.0
2026-04-18T19:35:41.696,3,284,202081,168550,80.0
2026-04-18T19:35:41.706,3,285,202081,168550,80.0
2026-04-18T19:35:41.716,3,286,202185,168809,80.0
2026-04-18T19:35:41.726,3,287,202185,168809,80.0
2026-04-18T19:35:41.736,3,288,202185,168809,80.0
2026-04-18T19:35:41.746,3,289,202185,168809,80.0
2026-04-18T19:35:41.756,3,290,202236,168833,80.0
2026-04-18T19:35:41.767,3,291,202236,168833,80.0
2026-04-18T19:35:41.776,3,292,202236,168833,80.0
2026-04-18T19:35:41.786,3,293,202236,168833,80.0
2026-04-18T19:35:41.796,3,294,202377,169040,80.0
2026-04-18T19:35:41.806,3,295,202377,169040,80.0
2026-04-18T19:35:41.816,3,296,202377,169040,80.0
2026-04-18T19:35:41.826,3,297,202377,169040,80.0
2026-04-18T19:35:41.836,3,298,202661,169597,80.0
2026-04-18T19:35:41.846,3,299,202661,169597,80.0
2026-04-18T19:35:41.856,3,300,202661,169597,80.0
2026-04-18T19:35:41.866,3,301,202661,169597,80.0
2026-04-18T19:35:41.876,3,302,202923,170030,80.0
2026-04-18T19:35:41.886,3,303,202923,170030,80.0
2026-04-18T19:35:41.896,3,304,202923,170030,80.0
2026-04-18T19:35:41.906,3,305,202923,170030,80.0
2026-04-18T19:35:41.916,3,306,203169,170483,80.0
2026-04-18T19:35:41.926,3,307,203169,170483,80.0
2026-04-18T19:35:41.936,3,308,203169,170483,80.0
2026-04-18T19:35:41.946,3,309,203169,170483,80.0
2026-04-18T19:35:41.956,3,310,203360,170847,80.0
2026-04-18T19:35:41.966,3,311,203360,170847,80.0
2026-04-18T19:35:41.975,3,312,203360,170847,80.0
2026-04-18T19:35:41.986,3,313,203360,170847,80.0
2026-04-18T19:35:41.996,3,314,203528,171097,80.0
2026-04-18T19:35:42.006,3,315,203528,171097,80.0
2026-04-18T19:35:42.015,3,316,203528,171097,80.0
2026-04-18T19:35:42.025,3,317,203528,171097,80.0
2026-04-18T19:35:42.035,3,318,203512,170967,80.0
2026-04-18T19:35:42.046,3,319,203512,170967,80.0
2026-04-18T19:35:42.055,3,320,203512,170967,80.0
2026-04-18T19:35:42.065,3,321,203512,170967,80.0
2026-04-18T19:35:42.075,3,322,203611,171089,80.0
2026-04-18T19:35:42.085,3,323,203611,171089,80.0
2026-04-18T19:35:42.095,3,324,203611,171089,80.0
2026-04-18T19:35:42.105,3,325,203611,171089,80.0
2026-04-18T19:35:42.116,3,326,203752,171172,80.0
2026-04-18T19:35:42.126,3,327,203752,171172,80.0
2026-04-18T19:35:42.135,3,328,203752,171172,80.0
2026-04-18T19:35:42.146,3,329,203752,171172,80.0
2026-04-18T19:35:42.156,3,330,203826,171187,80.0
2026-04-18T19:35:42.166,3,331,203826,171187,80.0
2026-04-18T19:35:42.175,3,332,203826,171187,80.0
2026-04-18T19:35:42.186,3,333,203826,171187,80.0
2026-04-18T19:35:42.196,3,334,203993,171490,80.0
2026-04-18T19:35:42.205,3,335,203993,171490,80.0
2026-04-18T19:35:42.215,3,336,203993,171490,80.0
2026-04-18T19:35:42.226,3,337,203993,171490,80.0
2026-04-18T19:35:42.236,3,338,204181,171825,80.0
2026-04-18T19:35:42.246,3,339,204181,171825,80.0
2026-04-18T19:35:42.256,3,340,204181,171825,80.0
2026-04-18T19:35:42.265,3,341,204181,171825,80.0
2026-04-18T19:35:42.276,3,342,204344,172168,80.0
2026-04-18T19:35:42.286,3,343,204344,172168,80.0
2026-04-18T19:35:42.296,3,344,204344,172168,80.0
2026-04-18T19:35:42.305,3,345,204344,172168,80.0
2026-04-18T19:35:42.315,3,346,204684,172887,80.0
2026-04-18T19:35:42.325,3,347,204684,172887,80.0
2026-04-18T19:35:42.335,3,348,204684,172887,80.0
2026-04-18T19:35:42.346,3,349,204684,172887,80.0
2026-04-18T19:35:42.356,3,350,204895,173275,80.0
2026-04-18T19:35:42.366,3,351,204895,173275,80.0
2026-04-18T19:35:42.375,3,352,204895,173275,80.0
2026-04-18T19:35:42.385,3,353,204895,173275,80.0
2026-04-18T19:35:42.395,3,354,204894,173224,80.0
2026-04-18T19:35:42.405,3,355,204894,173224,80.0
2026-04-18T19:35:42.415,3,356,204894,173224,80.0
2026-04-18T19:35:42.425,3,357,204894,173224,80.0
2026-04-18T19:35:42.435,3,358,204744,172934,80.0
2026-04-18T19:35:42.445,3,359,204744,172934,80.0
2026-04-18T19:35:42.455,3,360,204744,172934,80.0
2026-04-18T19:35:42.465,3,361,204744,172934,80.0
2026-04-18T19:35:42.475,3,362,204613,172645,80.0
2026-04-18T19:35:42.485,3,363,204613,172645,80.0
2026-04-18T19:35:42.495,3,364,204613,172645,80.0
2026-04-18T19:35:42.505,3,365,204613,172645,80.0
2026-04-18T19:35:42.515,3,366,204435,172254,80.0
2026-04-18T19:35:42.525,3,367,204435,172254,80.0
2026-04-18T19:35:42.535,3,368,204435,172254,80.0
2026-04-18T19:35:42.545,3,369,204435,172254,80.0
2026-04-18T19:35:42.555,3,370,204511,172346,80.0
2026-04-18T19:35:42.565,3,371,204511,172346,80.0
2026-04-18T19:35:42.575,3,372,204511,172346,80.0
2026-04-18T19:35:42.585,3,373,204511,172346,80.0
2026-04-18T19:35:42.595,3,374,204692,172695,80.0
2026-04-18T19:35:42.605,3,375,204692,172695,80.0
2026-04-18T19:35:42.615,3,376,204692,172695,80.0
2026-04-18T19:35:42.625,3,377,204692,172695,80.0
2026-04-18T19:35:42.635,3,378,204816,172900,80.0
2026-04-18T19:35:42.645,3,379,204816,172900,80.0
2026-04-18T19:35:42.655,3,380,204816,172900,80.0
2026-04-18T19:35:42.665,3,381,204816,172900,80.0
2026-04-18T19:35:42.675,3,382,204914,173113,80.0
2026-04-18T19:35:42.685,3,383,204914,173113,80.0
2026-04-18T19:35:42.695,3,384,204914,173113,80.0
2026-04-18T19:35:42.705,3,385,204914,173113,80.0
2026-04-18T19:35:42.715,3,386,205019,173325,80.0
2026-04-18T19:35:42.725,3,387,205019,173325,80.0
2026-04-18T19:35:42.735,3,388,205019,173325,80.0
2026-04-18T19:35:42.745,3,389,205019,173325,80.0
2026-04-18T19:35:42.754,3,390,205073,173314,80.0
2026-04-18T19:35:42.764,3,391,205073,173314,80.0
2026-04-18T19:35:42.774,3,392,205073,173314,80.0
2026-04-18T19:35:42.784,3,393,205073,173314,80.0
2026-04-18T19:35:42.794,3,394,205054,173119,80.0
2026-04-18T19:35:42.804,3,395,205054,173119,80.0
2026-04-18T19:35:42.814,3,396,205054,173119,80.0
2026-04-18T19:35:42.824,3,397,205054,173119,80.0
2026-04-18T19:35:42.835,3,398,205095,173153,80.0
2026-04-18T19:35:42.844,3,399,205095,173153,80.0
2026-04-18T19:35:42.854,3,400,205095,173153,80.0
2026-04-18T19:35:42.864,3,401,205095,173153,80.0
2026-04-18T19:35:42.874,3,402,205125,173133,80.0
2026-04-18T19:35:42.884,3,403,205125,173133,80.0
2026-04-18T19:35:42.894,3,404,205125,173133,80.0
2026-04-18T19:35:42.904,3,405,205125,173133,80.0
2026-04-18T19:35:42.915,3,406,205146,173132,80.0
2026-04-18T19:35:42.924,3,407,205146,173132,80.0
2026-04-18T19:35:42.934,3,408,205146,173132,80.0
2026-04-18T19:35:42.944,3,409,205146,173132,80.0
2026-04-18T19:35:42.954,3,410,205182,173289,80.0
2026-04-18T19:35:42.964,3,411,205182,173289,80.0
2026-04-18T19:35:42.974,3,412,205182,173289,80.0
2026-04-18T19:35:42.984,3,413,205182,173289,80.0
2026-04-18T19:35:42.994,3,414,205356,173684,80.0
2026-04-18T19:35:43.004,3,415,205356,173684,80.0
2026-04-18T19:35:43.014,3,416,205356,173684,80.0
2026-04-18T19:35:43.024,3,417,205356,173684,80.0
2026-04-18T19:35:43.034,3,418,205417,173846,80.0
2026-04-18T19:35:43.044,3,419,205417,173846,80.0
2026-04-18T19:35:43.054,3,420,205417,173846,80.0
2026-04-18T19:35:43.064,3,421,205417,173846,80.0
2026-04-18T19:35:43.074,3,422,205438,173975,80.0
2026-04-18T19:35:43.084,3,423,205438,173975,80.0
2026-04-18T19:35:43.094,3,424,205438,173975,80.0
2026-04-18T19:35:43.104,3,425,205438,173975,80.0
2026-04-18T19:35:43.114,3,426,205529,174213,80.0
2026-04-18T19:35:43.124,3,427,205529,174213,80.0
2026-04-18T19:35:43.134,3,428,205529,174213,80.0
2026-04-18T19:35:43.144,3,429,205529,174213,80.0
2026-04-18T19:35:43.154,3,430,205680,174509,80.0
2026-04-18T19:35:43.164,3,431,205680,174509,80.0
2026-04-18T19:35:43.174,3,432,205680,174509,80.0
2026-04-18T19:35:43.184,3,433,205680,174509,80.0
2026-04-18T19:35:43.194,3,434,205639,174397,80.0
2026-04-18T19:35:43.204,3,435,205639,174397,80.0
2026-04-18T19:35:43.214,3,436,205639,174397,80.0
2026-04-18T19:35:43.224,3,437,205639,174397,80.0
2026-04-18T19:35:43.234,3,438,205650,174405,80.0
2026-04-18T19:35:43.244,3,439,205650,174405,80.0
2026-04-18T19:35:43.254,3,440,205650,174405,80.0
2026-04-18T19:35:43.264,3,441,205650,174405,80.0
2026-04-18T19:35:43.274,3,442,205646,174443,80.0
2026-04-18T19:35:43.284,3,443,205646,174443,80.0
2026-04-18T19:35:43.294,3,444,205646,174443,80.0
2026-04-18T19:35:43.304,3,445,205646,174443,80.0
2026-04-18T19:35:43.314,3,446,205678,174506,80.0
2026-04-18T19:35:43.324,3,447,205678,174506,80.0
2026-04-18T19:35:43.334,3,448,205678,174506,80.0
2026-04-18T19:35:43.344,3,449,205678,174506,80.0
