timestamp,window,sample,ir_raw,red_raw,true_hr
2026-04-18T19:22:13.387,1,0,127809,110412,74.0
2026-04-18T19:22:13.397,1,1,127952,110681,74.0
2026-04-18T19:22:13.407,1,2,127952,110681,74.0
2026-04-18T19:22:13.417,1,3,127952,110681,74.0
2026-04-18T19:22:13.426,1,4,127952,110681,74.0
2026-04-18T19:22:13.437,1,5,128138,111047,74.0
2026-04-18T19:22:13.447,1,6,128138,111047,74.0
2026-04-18T19:22:13.457,1,7,128138,111047,74.0
2026-04-18T19:22:13.467,1,8,128138,111047,74.0
2026-04-18T19:22:13.477,1,9,128374,111533,74.0
2026-04-18T19:22:13.487,1,10,128374,111533,74.0
2026-04-18T19:22:13.497,1,11,128374,111533,74.0
2026-04-18T19:22:13.507,1,12,128374,111533,74.0
2026-04-18T19:22:13.517,1,13,128517,111842,74.0
2026-04-18T19:22:13.527,1,14,128517,111842,74.0
2026-04-18T19:22:13.537,1,15,128517,111842,74.0
2026-04-18T19:22:13.547,1,16,128517,111842,74.0
2026-04-18T19:22:13.557,1,17,128569,111948,74.0
2026-04-18T19:22:13.567,1,18,128569,111948,74.0
2026-04-18T19:22:13.577,1,19,128569,111948,74.0
2026-04-18T19:22:13.587,1,20,128569,111948,74.0
2026-04-18T19:22:13.596,1,21,128614,112083,74.0
2026-04-18T19:22:13.606,1,22,128614,112083,74.0
2026-04-18T19:22:13.617,1,23,128614,112083,74.0
2026-04-18T19:22:13.627,1,24,128614,112083,74.0
2026-04-18T19:22:13.637,1,25,128780,112377,74.0
2026-04-18T19:22:13.647,1,26,128780,112377,74.0
2026-04-18T19:22:13.656,1,27,128780,112377,74.0
2026-04-18T19:22:13.666,1,28,128780,112377,74.0
2026-04-18T19:22:13.676,1,29,128820,112431,74.0
2026-04-18T19:22:13.686,1,30,128820,112431,74.0
2026-04-18T19:22:13.696,1,31,128820,112431,74.0
2026-04-18T19:22:13.706,1,32,128820,112431,74.0
2026-04-18T19:22:13.716,1,33,128814,112409,74.0
2026-04-18T19:22:13.726,1,34,128814,112409,74.0
2026-04-18T19:22:13.736,1,35,128814,112409,74.0
2026-04-18T19:22:13.746,1,36,128814,112409,74.0
2026-04-18T19:22:13.756,1,37,128637,112104,74.0
2026-04-18T19:22:13.766,1,38,128637,112104,74.0
2026-04-18T19:22:13.776,1,39,128637,112104,74.0
2026-04-18T19:22:13.786,1,40,128637,112104,74.0
2026-04-18T19:22:13.796,1,41,128520,111853,74.0
2026-04-18T19:22:13.806,1,42,128520,111853,74.0
2026-04-18T19:22:13.817,1,43,128520,111853,74.0
2026-04-18T19:22:13.827,1,44,128520,111853,74.0
2026-04-18T19:22:13.837,1,45,128465,111745,74.0
2026-04-18T19:22:13.847,1,46,128465,111745,74.0
2026-04-18T19:22:13.857,1,47,128465,111745,74.0
2026-04-18T19:22:13.866,1,48,128465,111745,74.0
2026-04-18T19:22:13.876,1,49,128503,111844,74.0
2026-04-18T19:22:13.886,1,50,128503,111844,74.0
2026-04-18T19:22:13.897,1,51,128503,111844,74.0
2026-04-18T19:22:13.906,1,52,128503,111844,74.0
2026-04-18T19:22:13.916,1,53,128443,111798,74.0
2026-04-18T19:22:13.926,1,54,128443,111798,74.0
2026-04-18T19:22:13.936,1,55,128443,111798,74.0
2026-04-18T19:22:13.946,1,56,128443,111798,74.0
2026-04-18T19:22:13.956,1,57,128449,111789,74.0
2026-04-18T19:22:13.966,1,58,128449,111789,74.0
2026-04-18T19:22:13.976,1,59,128449,111789,74.0
2026-04-18T19:22:13.986,1,60,128449,111789,74.0
2026-04-18T19:22:13.996,1,61,128417,111719,74.0
2026-04-18T19:22:14.006,1,62,128417,111719,74.0
2026-04-18T19:22:14.016,1,63,128417,111719,74.0
2026-04-18T19:22:14.026,1,64,128417,111719,74.0
2026-04-18T19:22:14.036,1,65,128370,111559,74.0
2026-04-18T19:22:14.047,1,66,128370,111559,74.0
2026-04-18T19:22:14.056,1,67,128370,111559,74.0
2026-04-18T19:22:14.066,1,68,128370,111559,74.0
2026-04-18T19:22:14.076,1,69,128354,111505,74.0
2026-04-18T19:22:14.086,1,70,128354,111505,74.0
2026-04-18T19:22:14.096,1,71,128354,111505,74.0
2026-04-18T19:22:14.106,1,72,128354,111505,74.0
2026-04-18T19:22:14.116,1,73,128398,111594,74.0
2026-04-18T19:22:14.126,1,74,128398,111594,74.0
2026-04-18T19:22:14.136,1,75,128398,111594,74.0
2026-04-18T19:22:14.146,1,76,128398,111594,74.0
2026-04-18T19:22:14.156,1,77,128566,111871,74.0
2026-04-18T19:22:14.166,1,78,128566,111871,74.0
2026-04-18T19:22:14.176,1,79,128566,111871,74.0
2026-04-18T19:22:14.186,1,80,128566,111871,74.0
2026-04-18T19:22:14.196,1,81,128602,111968,74.0
2026-04-18T19:22:14.206,1,82,128602,111968,74.0
2026-04-18T19:22:14.216,1,83,128602,111968,74.0
2026-04-18T19:22:14.226,1,84,128602,111968,74.0
2026-04-18T19:22:14.236,1,85,128833,112460,74.0
2026-04-18T19:22:14.245,1,86,128833,112460,74.0
2026-04-18T19:22:14.256,1,87,128833,112460,74.0
2026-04-18T19:22:14.266,1,88,128833,112460,74.0
2026-04-18T19:22:14.276,1,89,129087,112986,74.0
2026-04-18T19:22:14.286,1,90,129087,112986,74.0
2026-04-18T19:22:14.297,1,91,129087,112986,74.0
2026-04-18T19:22:14.306,1,92,129087,112986,74.0
2026-04-18T19:22:14.316,1,93,129297,113454,74.0
2026-04-18T19:22:14.326,1,94,129297,113454,74.0
2026-04-18T19:22:14.336,1,95,129297,113454,74.0
2026-04-18T19:22:14.346,1,96,129297,113454,74.0
2026-04-18T19:22:14.356,1,97,129337,113740,74.0
2026-04-18T19:22:14.366,1,98,129337,113740,74.0
2026-04-18T19:22:14.376,1,99,129337,113740,74.0
2026-04-18T19:22:14.386,1,100,129337,113740,74.0
2026-04-18T19:22:14.395,1,101,129032,113116,74.0
2026-04-18T19:22:14.406,1,102,129032,113116,74.0
2026-04-18T19:22:14.415,1,103,129032,113116,74.0
2026-04-18T19:22:14.425,1,104,129032,113116,74.0
2026-04-18T19:22:14.435,1,105,128692,112619,74.0
2026-04-18T19:22:14.446,1,106,128692,112619,74.0
2026-04-18T19:22:14.456,1,107,128692,112619,74.0
2026-04-18T19:22:14.466,1,108,128692,112619,74.0
2026-04-18T19:22:14.476,1,109,128254,111928,74.0
2026-04-18T19:22:14.486,1,110,128254,111928,74.0
2026-04-18T19:22:14.495,1,111,128254,111928,74.0
2026-04-18T19:22:14.506,1,112,128254,111928,74.0
2026-04-18T19:22:14.516,1,113,128325,112209,74.0
2026-04-18T19:22:14.526,1,114,128325,112209,74.0
2026-04-18T19:22:14.536,1,115,128325,112209,74.0
2026-04-18T19:22:14.546,1,116,128325,112209,74.0
2026-04-18T19:22:14.556,1,117,127328,110585,74.0
2026-04-18T19:22:14.566,1,118,127328,110585,74.0
2026-04-18T19:22:14.576,1,119,127328,110585,74.0
2026-04-18T19:22:14.586,1,120,127328,110585,74.0
2026-04-18T19:22:14.596,1,121,126876,109938,74.0
2026-04-18T19:22:14.606,1,122,126876,109938,74.0
2026-04-18T19:22:14.616,1,123,126876,109938,74.0
2026-04-18T19:22:14.626,1,124,126876,109938,74.0
2026-04-18T19:22:14.635,1,125,127066,110673,74.0
2026-04-18T19:22:14.645,1,126,127066,110673,74.0
2026-04-18T19:22:14.656,1,127,127066,110673,74.0
2026-04-18T19:22:14.666,1,128,127066,110673,74.0
2026-04-18T19:22:14.676,1,129,126328,109463,74.0
2026-04-18T19:22:14.686,1,130,126328,109463,74.0
2026-04-18T19:22:14.696,1,131,126328,109463,74.0
2026-04-18T19:22:14.705,1,132,126328,109463,74.0
2026-04-18T19:22:14.715,1,133,125292,107756,74.0
2026-04-18T19:22:14.726,1,134,125292,107756,74.0
2026-04-18T19:22:14.736,1,135,125292,107756,74.0
2026-04-18T19:22:14.746,1,136,125292,107756,74.0
2026-04-18T19:22:14.756,1,137,123881,105306,74.0
2026-04-18T19:22:14.766,1,138,123881,105306,74.0
2026-04-18T19:22:14.776,1,139,123881,105306,74.0
2026-04-18T19:22:14.786,1,140,123881,105306,74.0
2026-04-18T19:22:14.796,1,141,123137,103999,74.0
2026-04-18T19:22:14.806,1,142,123137,103999,74.0
2026-04-18T19:22:14.815,1,143,123137,103999,74.0
2026-04-18T19:22:14.826,1,144,123137,103999,74.0
2026-04-18T19:22:14.835,1,145,122646,103064,74.0
2026-04-18T19:22:14.846,1,146,122646,103064,74.0
2026-04-18T19:22:14.856,1,147,122646,103064,74.0
2026-04-18T19:22:14.866,1,148,122646,103064,74.0
2026-04-18T19:22:14.876,1,149,122459,102668,74.0
2026-04-18T19:22:14.886,1,150,122459,102668,74.0
2026-04-18T19:22:14.895,1,151,122459,102668,74.0
2026-04-18T19:22:14.906,1,152,122459,102668,74.0
2026-04-18T19:22:14.915,1,153,122393,102507,74.0
2026-04-18T19:22:14.925,1,154,122393,102507,74.0
2026-04-18T19:22:14.936,1,155,122393,102507,74.0
2026-04-18T19:22:14.945,1,156,122393,102507,74.0
2026-04-18T19:22:14.955,1,157,122327,102399,74.0
2026-04-18T19:22:14.965,1,158,122327,102399,74.0
2026-04-18T19:22:14.975,1,159,122327,102399,74.0
2026-04-18T19:22:14.985,1,160,122327,102399,74.0
2026-04-18T19:22:14.995,1,161,122235,102257,74.0
2026-04-18T19:22:15.005,1,162,122235,102257,74.0
2026-04-18T19:22:15.015,1,163,122235,102257,74.0
2026-04-18T19:22:15.025,1,164,122235,102257,74.0
2026-04-18T19:22:15.035,1,165,122225,102279,74.0
2026-04-18T19:22:15.045,1,166,122225,102279,74.0
2026-04-18T19:22:15.055,1,167,122225,102279,74.0
2026-04-18T19:22:15.065,1,168,122225,102279,74.0
2026-04-18T19:22:15.076,1,169,122255,102342,74.0
2026-04-18T19:22:15.085,1,170,122255,102342,74.0
2026-04-18T19:22:15.096,1,171,122255,102342,74.0
2026-04-18T19:22:15.106,1,172,122255,102342,74.0
2026-04-18T19:22:15.115,1,173,122297,102376,74.0
2026-04-18T19:22:15.125,1,174,122297,102376,74.0
2026-04-18T19:22:15.136,1,175,122297,102376,74.0
2026-04-18T19:22:15.145,1,176,122297,102376,74.0
2026-04-18T19:22:15.155,1,177,122279,102331,74.0
2026-04-18T19:22:15.165,1,178,122279,102331,74.0
2026-04-18T19:22:15.175,1,179,122279,102331,74.0
2026-04-18T19:22:15.185,1,180,122279,102331,74.0
2026-04-18T19:22:15.195,1,181,122270,102288,74.0
2026-04-18T19:22:15.204,1,182,122270,102288,74.0
2026-04-18T19:22:15.215,1,183,122270,102288,74.0
2026-04-18T19:22:15.225,1,184,122270,102288,74.0
2026-04-18T19:22:15.235,1,185,122318,102319,74.0
2026-04-18T19:22:15.245,1,186,122318,102319,74.0
2026-04-18T19:22:15.255,1,187,122318,102319,74.0
2026-04-18T19:22:15.265,1,188,122318,102319,74.0
2026-04-18T19:22:15.275,1,189,122418,102453,74.0
2026-04-18T19:22:15.285,1,190,122418,102453,74.0
2026-04-18T19:22:15.295,1,191,122418,102453,74.0
2026-04-18T19:22:15.305,1,192,122418,102453,74.0
2026-04-18T19:22:15.315,1,193,122526,102579,74.0
2026-04-18T19:22:15.325,1,194,122526,102579,74.0
2026-04-18T19:22:15.335,1,195,122526,102579,74.0
2026-04-18T19:22:15.345,1,196,122526,102579,74.0
2026-04-18T19:22:15.355,1,197,122593,102637,74.0
2026-04-18T19:22:15.365,1,198,122593,102637,74.0
2026-04-18T19:22:15.375,1,199,122593,102637,74.0
2026-04-18T19:22:15.385,1,200,122593,102637,74.0
2026-04-18T19:22:15.395,1,201,122574,102586,74.0
2026-04-18T19:22:15.405,1,202,122574,102586,74.0
2026-04-18T19:22:15.415,1,203,122574,102586,74.0
2026-04-18T19:22:15.425,1,204,122574,102586,74.0
2026-04-18T19:22:15.435,1,205,122554,102521,74.0
2026-04-18T19:22:15.445,1,206,122554,102521,74.0
2026-04-18T19:22:15.455,1,207,122554,102521,74.0
2026-04-18T19:22:15.465,1,208,122554,102521,74.0
2026-04-18T19:22:15.475,1,209,122517,102446,74.0
2026-04-18T19:22:15.485,1,210,122517,102446,74.0
2026-04-18T19:22:15.495,1,211,122517,102446,74.0
2026-04-18T19:22:15.505,1,212,122517,102446,74.0
2026-04-18T19:22:15.515,1,213,122507,102419,74.0
2026-04-18T19:22:15.525,1,214,122507,102419,74.0
2026-04-18T19:22:15.535,1,215,122507,102419,74.0
2026-04-18T19:22:15.545,1,216,122507,102419,74.0
2026-04-18T19:22:15.555,1,217,122494,102378,74.0
2026-04-18T19:22:15.565,1,218,122494,102378,74.0
2026-04-18T19:22:15.575,1,219,122494,102378,74.0
2026-04-18T19:22:15.585,1,220,122494,102378,74.0
2026-04-18T19:22:15.595,1,221,122493,102358,74.0
2026-04-18T19:22:15.605,1,222,122493,102358,74.0
2026-04-18T19:22:15.615,1,223,122493,102358,74.0
2026-04-18T19:22:15.625,1,224,122493,102358,74.0
2026-04-18T19:22:15.634,1,225,122501,102395,74.0
2026-04-18T19:22:15.644,1,226,122501,102395,74.0
2026-04-18T19:22:15.654,1,227,122501,102395,74.0
2026-04-18T19:22:15.664,1,228,122501,102395,74.0
2026-04-18T19:22:15.674,1,229,122508,102416,74.0
2026-04-18T19:22:15.685,1,230,122508,102416,74.0
2026-04-18T19:22:15.695,1,231,122508,102416,74.0
2026-04-18T19:22:15.705,1,232,122508,102416,74.0
2026-04-18T19:22:15.715,1,233,122525,102470,74.0
2026-04-18T19:22:15.725,1,234,122525,102470,74.0
2026-04-18T19:22:15.735,1,235,122525,102470,74.0
2026-04-18T19:22:15.745,1,236,122525,102470,74.0
2026-04-18T19:22:15.754,1,237,122519,102512,74.0
2026-04-18T19:22:15.764,1,238,122519,102512,74.0
2026-04-18T19:22:15.774,1,239,122519,102512,74.0
2026-04-18T19:22:15.784,1,240,122519,102512,74.0
2026-04-18T19:22:15.794,1,241,122527,102588,74.0
2026-04-18T19:22:15.804,1,242,122527,102588,74.0
2026-04-18T19:22:15.814,1,243,122527,102588,74.0
2026-04-18T19:22:15.824,1,244,122527,102588,74.0
2026-04-18T19:22:15.834,1,245,122489,102593,74.0
2026-04-18T19:22:15.844,1,246,122489,102593,74.0
2026-04-18T19:22:15.855,1,247,122489,102593,74.0
2026-04-18T19:22:15.864,1,248,122489,102593,74.0
2026-04-18T19:22:15.874,1,249,122448,102569,74.0
2026-04-18T19:22:15.884,1,250,122448,102569,74.0
2026-04-18T19:22:15.894,1,251,122448,102569,74.0
2026-04-18T19:22:15.904,1,252,122448,102569,74.0
2026-04-18T19:22:15.914,1,253,122412,102545,74.0
2026-04-18T19:22:15.924,1,254,122412,102545,74.0
2026-04-18T19:22:15.934,1,255,122412,102545,74.0
2026-04-18T19:22:15.944,1,256,122412,102545,74.0
2026-04-18T19:22:15.954,1,257,122363,102481,74.0
2026-04-18T19:22:15.964,1,258,122363,102481,74.0
2026-04-18T19:22:15.974,1,259,122363,102481,74.0
2026-04-18T19:22:15.984,1,260,122363,102481,74.0
2026-04-18T19:22:15.994,1,261,122294,102401,74.0
2026-04-18T19:22:16.004,1,262,122294,102401,74.0
2026-04-18T19:22:16.014,1,263,122294,102401,74.0
2026-04-18T19:22:16.024,1,264,122294,102401,74.0
2026-04-18T19:22:16.035,1,265,122230,102337,74.0
2026-04-18T19:22:16.045,1,266,122230,102337,74.0
2026-04-18T19:22:16.054,1,267,122230,102337,74.0
2026-04-18T19:22:16.064,1,268,122230,102337,74.0
2026-04-18T19:22:16.074,1,269,122116,102206,74.0
2026-04-18T19:22:16.084,1,270,122116,102206,74.0
2026-04-18T19:22:16.094,1,271,122116,102206,74.0
2026-04-18T19:22:16.104,1,272,122116,102206,74.0
2026-04-18T19:22:16.114,1,273,122051,102134,74.0
2026-04-18T19:22:16.124,1,274,122051,102134,74.0
2026-04-18T19:22:16.134,1,275,122051,102134,74.0
2026-04-18T19:22:16.144,1,276,122051,102134,74.0
2026-04-18T19:22:16.154,1,277,121959,102056,74.0
2026-04-18T19:22:16.164,1,278,121959,102056,74.0
2026-04-18T19:22:16.174,1,279,121959,102056,74.0
2026-04-18T19:22:16.184,1,280,121959,102056,74.0
2026-04-18T19:22:16.194,1,281,121916,102063,74.0
2026-04-18T19:22:16.204,1,282,121916,102063,74.0
2026-04-18T19:22:16.214,1,283,121916,102063,74.0
2026-04-18T19:22:16.224,1,284,121916,102063,74.0
2026-04-18T19:22:16.234,1,285,121856,101987,74.0
2026-04-18T19:22:16.243,1,286,121856,101987,74.0
2026-04-18T19:22:16.254,1,287,121856,101987,74.0
2026-04-18T19:22:16.264,1,288,121856,101987,74.0
2026-04-18T19:22:16.274,1,289,121805,101902,74.0
2026-04-18T19:22:16.284,1,290,121805,101902,74.0
2026-04-18T19:22:16.294,1,291,121805,101902,74.0
2026-04-18T19:22:16.304,1,292,121805,101902,74.0
2026-04-18T19:22:16.314,1,293,121784,101829,74.0
2026-04-18T19:22:16.324,1,294,121784,101829,74.0
2026-04-18T19:22:16.334,1,295,121784,101829,74.0
2026-04-18T19:22:16.344,1,296,121784,101829,74.0
2026-04-18T19:22:16.354,1,297,121714,101666,74.0
2026-04-18T19:22:16.364,1,298,121714,101666,74.0
2026-04-18T19:22:16.373,1,299,121714,101666,74.0
2026-04-18T19:22:16.384,1,300,121714,101666,74.0
2026-04-18T19:22:16.394,1,301,121639,101534,74.0
2026-04-18T19:22:16.404,1,302,121639,101534,74.0
2026-04-18T19:22:16.414,1,303,121639,101534,74.0
2026-04-18T19:22:16.424,1,304,121639,101534,74.0
2026-04-18T19:22:16.433,1,305,121632,101526,74.0
2026-04-18T19:22:16.444,1,306,121632,101526,74.0
2026-04-18T19:22:16.453,1,307,121632,101526,74.0
2026-04-18T19:22:16.464,1,308,121632,101526,74.0
2026-04-18T19:22:16.473,1,309,121664,101560,74.0
2026-04-18T19:22:16.484,1,310,121664,101560,74.0
2026-04-18T19:22:16.493,1,311,121664,101560,74.0
2026-04-18T19:22:16.504,1,312,121664,101560,74.0
2026-04-18T19:22:16.513,1,313,121701,101635,74.0
2026-04-18T19:22:16.523,1,314,121701,101635,74.0
2026-04-18T19:22:16.533,1,315,121701,101635,74.0
2026-04-18T19:22:16.543,1,316,121701,101635,74.0
2026-04-18T19:22:16.553,1,317,121751,101769,74.0
2026-04-18T19:22:16.563,1,318,121751,101769,74.0
2026-04-18T19:22:16.573,1,319,121751,101769,74.0
2026-04-18T19:22:16.583,1,320,121751,101769,74.0
2026-04-18T19:22:16.593,1,321,121813,101879,74.0
2026-04-18T19:22:16.603,1,322,121813,101879,74.0
2026-04-18T19:22:16.613,1,323,121813,101879,74.0
2026-04-18T19:22:16.623,1,324,121813,101879,74.0
2026-04-18T19:22:16.633,1,325,121873,101978,74.0
2026-04-18T19:22:16.643,1,326,121873,101978,74.0
2026-04-18T19:22:16.653,1,327,121873,101978,74.0
2026-04-18T19:22:16.663,1,328,121873,101978,74.0
2026-04-18T19:22:16.673,1,329,121902,102031,74.0
2026-04-18T19:22:16.683,1,330,121902,102031,74.0
2026-04-18T19:22:16.693,1,331,121902,102031,74.0
2026-04-18T19:22:16.703,1,332,121902,102031,74.0
2026-04-18T19:22:16.713,1,333,121951,102135,74.0
2026-04-18T19:22:16.723,1,334,121951,102135,74.0
2026-04-18T19:22:16.733,1,335,121951,102135,74.0
2026-04-18T19:22:16.743,1,336,121951,102135,74.0
2026-04-18T19:22:16.754,1,337,121977,102176,74.0
2026-04-18T19:22:16.763,1,338,121977,102176,74.0
2026-04-18T19:22:16.774,1,339,121977,102176,74.0
2026-04-18T19:22:16.784,1,340,121977,102176,74.0
2026-04-18T19:22:16.793,1,341,121978,102166,74.0
2026-04-18T19:22:16.803,1,342,121978,102166,74.0
2026-04-18T19:22:16.813,1,343,121978,102166,74.0
2026-04-18T19:22:16.824,1,344,121978,102166,74.0
2026-04-18T19:22:16.833,1,345,121940,102117,74.0
2026-04-18T19:22:16.844,1,346,121940,102117,74.0
2026-04-18T19:22:16.854,1,347,121940,102117,74.0
2026-04-18T19:22:16.863,1,348,121940,102117,74.0
2026-04-18T19:22:16.873,1,349,121867,102028,74.0
2026-04-18T19:22:16.883,1,350,121867,102028,74.0
2026-04-18T19:22:16.893,1,351,121867,102028,74.0
2026-04-18T19:22:16.904,1,352,121867,102028,74.0
2026-04-18T19:22:16.913,1,353,121853,102009,74.0
2026-04-18T19:22:16.923,1,354,121853,102009,74.0
2026-04-18T19:22:16.933,1,355,121853,102009,74.0
2026-04-18T19:22:16.943,1,356,121853,102009,74.0
2026-04-18T19:22:16.953,1,357,121843,102021,74.0
2026-04-18T19:22:16.963,1,358,121843,102021,74.0
2026-04-18T19:22:16.973,1,359,121843,102021,74.0
2026-04-18T19:22:16.983,1,360,121843,102021,74.0
2026-04-18T19:22:16.993,1,361,121849,102021,74.0
2026-04-18T19:22:17.003,1,362,121849,102021,74.0
2026-04-18T19:22:17.013,1,363,121849,102021,74.0
2026-04-18T19:22:17.023,1,364,121849,102021,74.0
2026-04-18T19:22:17.033,1,365,121865,102046,74.0
2026-04-18T19:22:17.043,1,366,121865,102046,74.0
2026-04-18T19:22:17.053,1,367,121865,102046,74.0
2026-04-18T19:22:17.063,1,368,121865,102046,74.0
2026-04-18T19:22:17.073,1,369,121896,102063,74.0
2026-04-18T19:22:17.083,1,370,121896,102063,74.0
2026-04-18T19:22:17.093,1,371,121896,102063,74.0
2026-04-18T19:22:17.103,1,372,121896,102063,74.0
2026-04-18T19:22:17.113,1,373,121882,102036,74.0
2026-04-18T19:22:17.123,1,374,121882,102036,74.0
2026-04-18T19:22:17.133,1,375,121882,102036,74.0
2026-04-18T19:22:17.143,1,376,121882,102036,74.0
2026-04-18T19:22:17.153,1,377,121883,102015,74.0
2026-04-18T19:22:17.163,1,378,121883,102015,74.0
2026-04-18T19:22:17.173,1,379,121883,102015,74.0
2026-04-18T19:22:17.183,1,380,121883,102015,74.0
2026-04-18T19:22:17.193,1,381,121898,102037,74.0
2026-04-18T19:22:17.203,1,382,121898,102037,74.0
2026-04-18T19:22:17.213,1,383,121898,102037,74.0
2026-04-18T19:22:17.223,1,384,121898,102037,74.0
2026-04-18T19:22:17.233,1,385,121901,102033,74.0
2026-04-18T19:22:17.243,1,386,121901,102033,74.0
2026-04-18T19:22:17.253,1,387,121901,102033,74.0
2026-04-18T19:22:17.263,1,388,121901,102033,74.0
2026-04-18T19:22:17.273,1,389,121883,102049,74.0
2026-04-18T19:22:17.282,1,390,121883,102049,74.0
2026-04-18T19:22:17.292,1,391,121883,102049,74.0
2026-04-18T19:22:17.302,1,392,121883,102049,74.0
2026-04-18T19:22:17.313,1,393,121908,102115,74.0
2026-04-18T19:22:17.323,1,394,121908,102115,74.0
2026-04-18T19:22:17.333,1,395,121908,102115,74.0
2026-04-18T19:22:17.343,1,396,121908,102115,74.0
2026-04-18T19:22:17.353,1,397,121945,102213,74.0
2026-04-18T19:22:17.363,1,398,121945,102213,74.0
2026-04-18T19:22:17.373,1,399,121945,102213,74.0
2026-04-18T19:22:17.383,1,400,121945,102213,74.0
2026-04-18T19:22:17.392,1,401,121965,102271,74.0
2026-04-18T19:22:17.403,1,402,121965,102271,74.0
2026-04-18T19:22:17.413,1,403,121965,102271,74.0
2026-04-18T19:22:17.423,1,404,121965,102271,74.0
2026-04-18T19:22:17.433,1,405,121995,102349,74.0
2026-04-18T19:22:17.443,1,406,121995,102349,74.0
2026-04-18T19:22:17.452,1,407,121995,102349,74.0
2026-04-18T19:22:17.463,1,408,121995,102349,74.0
2026-04-18T19:22:17.473,1,409,122031,102394,74.0
2026-04-18T19:22:17.483,1,410,122031,102394,74.0
2026-04-18T19:22:17.493,1,411,122031,102394,74.0
2026-04-18T19:22:17.503,1,412,122031,102394,74.0
2026-04-18T19:22:17.512,1,413,122066,102430,74.0
2026-04-18T19:22:17.523,1,414,122066,102430,74.0
2026-04-18T19:22:17.532,1,415,122066,102430,74.0
2026-04-18T19:22:17.543,1,416,122066,102430,74.0
2026-04-18T19:22:17.553,1,417,122097,102476,74.0
2026-04-18T19:22:17.562,1,418,122097,102476,74.0
2026-04-18T19:22:17.572,1,419,122097,102476,74.0
2026-04-18T19:22:17.582,1,420,122097,102476,74.0
2026-04-18T19:22:17.592,1,421,122113,102518,74.0
2026-04-18T19:22:17.602,1,422,122113,102518,74.0
2026-04-18T19:22:17.612,1,423,122113,102518,74.0
2026-04-18T19:22:17.623,1,424,122113,102518,74.0
2026-04-18T19:22:17.632,1,425,122113,102501,74.0
2026-04-18T19:22:17.643,1,426,122113,102501,74.0
2026-04-18T19:22:17.652,1,427,122113,102501,74.0
2026-04-18T19:22:17.663,1,428,122113,102501,74.0
2026-04-18T19:22:17.672,1,429,122121,102497,74.0
2026-04-18T19:22:17.682,1,430,122121,102497,74.0
2026-04-18T19:22:17.692,1,431,122121,102497,74.0
2026-04-18T19:22:17.702,1,432,122121,102497,74.0
2026-04-18T19:22:17.712,1,433,122138,102508,74.0
2026-04-18T19:22:17.722,1,434,122138,102508,74.0
2026-04-18T19:22:17.732,1,435,122138,102508,74.0
2026-04-18T19:22:17.742,1,436,122138,102508,74.0
2026-04-18T19:22:17.752,1,437,122147,102522,74.0
2026-04-18T19:22:17.762,1,438,122147,102522,74.0
2026-04-18T19:22:17.772,1,439,122147,102522,74.0
2026-04-18T19:22:17.782,1,440,122147,102522,74.0
2026-04-18T19:22:17.792,1,441,122152,102510,74.0
2026-04-18T19:22:17.802,1,442,122152,102510,74.0
2026-04-18T19:22:17.812,1,443,122152,102510,74.0
2026-04-18T19:22:17.822,1,444,122152,102510,74.0
2026-04-18T19:22:17.832,1,445,122147,102508,74.0
2026-04-18T19:22:17.842,1,446,122147,102508,74.0
2026-04-18T19:22:17.852,1,447,122147,102508,74.0
2026-04-18T19:22:17.861,1,448,122147,102508,74.0
2026-04-18T19:22:17.872,1,449,122166,102513,74.0
2026-04-18T19:22:17.882,1,450,122166,102513,74.0
2026-04-18T19:22:17.892,1,451,122166,102513,74.0
2026-04-18T19:22:17.902,1,452,122166,102513,74.0
2026-04-18T19:22:17.912,1,453,122169,102498,74.0
2026-04-18T19:22:17.922,1,454,122169,102498,74.0
2026-04-18T19:22:17.932,1,455,122169,102498,74.0
2026-04-18T19:22:17.942,1,456,122169,102498,74.0
2026-04-18T19:22:17.952,1,457,122170,102503,74.0
2026-04-18T19:22:17.962,1,458,122170,102503,74.0
2026-04-18T19:22:17.972,1,459,122170,102503,74.0
2026-04-18T19:22:17.982,1,460,122170,102503,74.0
2026-04-18T19:22:17.992,1,461,122193,102518,74.0
2026-04-18T19:22:18.002,1,462,122193,102518,74.0
2026-04-18T19:22:18.012,1,463,122193,102518,74.0
2026-04-18T19:22:18.022,1,464,122193,102518,74.0
2026-04-18T19:22:18.032,1,465,122202,102549,74.0
2026-04-18T19:22:18.041,1,466,122202,102549,74.0
2026-04-18T19:22:18.052,1,467,122202,102549,74.0
2026-04-18T19:22:18.062,1,468,122202,102549,74.0
2026-04-18T19:22:18.072,1,469,122184,102575,74.0
2026-04-18T19:22:18.082,1,470,122184,102575,74.0
2026-04-18T19:22:18.091,1,471,122184,102575,74.0
2026-04-18T19:22:18.101,1,472,122184,102575,74.0
2026-04-18T19:22:18.111,1,473,122180,102590,74.0
2026-04-18T19:22:18.121,1,474,122180,102590,74.0
2026-04-18T19:22:18.131,1,475,122180,102590,74.0
2026-04-18T19:22:18.141,1,476,122180,102590,74.0
2026-04-18T19:22:18.152,1,477,122165,102588,74.0
2026-04-18T19:22:18.161,1,478,122165,102588,74.0
2026-04-18T19:22:18.171,1,479,122165,102588,74.0
2026-04-18T19:22:18.181,1,480,122165,102588,74.0
2026-04-18T19:22:18.191,1,481,122139,102571,74.0
2026-04-18T19:22:18.201,1,482,122139,102571,74.0
2026-04-18T19:22:18.211,1,483,122139,102571,74.0
2026-04-18T19:22:18.222,1,484,122139,102571,74.0
2026-04-18T19:22:18.231,1,485,122139,102582,74.0
2026-04-18T19:22:18.242,1,486,122139,102582,74.0
2026-04-18T19:22:18.252,1,487,122139,102582,74.0
2026-04-18T19:22:18.262,1,488,122139,102582,74.0
2026-04-18T19:22:18.272,1,489,122158,102613,74.0
2026-04-18T19:22:18.281,1,490,122158,102613,74.0
2026-04-18T19:22:18.291,1,491,122158,102613,74.0
2026-04-18T19:22:18.301,1,492,122158,102613,74.0
2026-04-18T19:22:18.312,1,493,122176,102625,74.0
2026-04-18T19:22:18.321,1,494,122176,102625,74.0
2026-04-18T19:22:18.331,1,495,122176,102625,74.0
2026-04-18T19:22:18.341,1,496,122176,102625,74.0
2026-04-18T19:22:18.352,1,497,122171,102625,74.0
2026-04-18T19:22:18.362,1,498,122171,102625,74.0
2026-04-18T19:22:18.372,1,499,122171,102625,74.0
2026-04-18T19:22:18.382,1,500,122171,102625,74.0
2026-04-18T19:22:18.392,1,501,122158,102622,74.0
2026-04-18T19:22:18.401,1,502,122158,102622,74.0
2026-04-18T19:22:18.411,1,503,122158,102622,74.0
2026-04-18T19:22:18.421,1,504,122158,102622,74.0
2026-04-18T19:22:18.432,1,505,122156,102617,74.0
2026-04-18T19:22:18.442,1,506,122156,102617,74.0
2026-04-18T19:22:18.451,1,507,122156,102617,74.0
2026-04-18T19:22:18.462,1,508,122156,102617,74.0
2026-04-18T19:22:18.472,1,509,122155,102596,74.0
2026-04-18T19:22:18.482,1,510,122155,102596,74.0
2026-04-18T19:22:18.492,1,511,122155,102596,74.0
2026-04-18T19:22:18.502,1,512,122155,102596,74.0
2026-04-18T19:22:18.511,1,513,122172,102619,74.0
2026-04-18T19:22:18.522,1,514,122172,102619,74.0
2026-04-18T19:22:18.532,1,515,122172,102619,74.0
2026-04-18T19:22:18.542,1,516,122172,102619,74.0
2026-04-18T19:22:18.551,1,517,122201,102652,74.0
2026-04-18T19:22:18.561,1,518,122201,102652,74.0
2026-04-18T19:22:18.571,1,519,122201,102652,74.0
2026-04-18T19:22:18.581,1,520,122201,102652,74.0
2026-04-18T19:22:18.592,1,521,122188,102653,74.0
2026-04-18T19:22:18.602,1,522,122188,102653,74.0
2026-04-18T19:22:18.611,1,523,122188,102653,74.0
2026-04-18T19:22:18.621,1,524,122188,102653,74.0
2026-04-18T19:22:18.631,1,525,122213,102639,74.0
2026-04-18T19:22:18.642,1,526,122213,102639,74.0
2026-04-18T19:22:18.651,1,527,122213,102639,74.0
2026-04-18T19:22:18.661,1,528,122213,102639,74.0
2026-04-18T19:22:18.671,1,529,122239,102670,74.0
2026-04-18T19:22:18.681,1,530,122239,102670,74.0
2026-04-18T19:22:18.691,1,531,122239,102670,74.0
2026-04-18T19:22:18.702,1,532,122239,102670,74.0
2026-04-18T19:22:18.711,1,533,122229,102654,74.0
2026-04-18T19:22:18.721,1,534,122229,102654,74.0
2026-04-18T19:22:18.731,1,535,122229,102654,74.0
2026-04-18T19:22:18.741,1,536,122229,102654,74.0
2026-04-18T19:22:18.751,1,537,122244,102658,74.0
2026-04-18T19:22:18.761,1,538,122244,102658,74.0
2026-04-18T19:22:18.771,1,539,122244,102658,74.0
2026-04-18T19:22:18.781,1,540,122244,102658,74.0
2026-04-18T19:22:18.791,1,541,122262,102710,74.0
2026-04-18T19:22:18.801,1,542,122262,102710,74.0
2026-04-18T19:22:18.811,1,543,122262,102710,74.0
2026-04-18T19:22:18.821,1,544,122262,102710,74.0
2026-04-18T19:22:18.831,1,545,122299,102756,74.0
2026-04-18T19:22:18.841,1,546,122299,102756,74.0
2026-04-18T19:22:18.851,1,547,122299,102756,74.0
2026-04-18T19:22:18.861,1,548,122299,102756,74.0
2026-04-18T19:22:18.871,1,549,122302,102803,74.0
2026-04-18T19:22:18.881,1,550,122302,102803,74.0
2026-04-18T19:22:18.891,1,551,122302,102803,74.0
2026-04-18T19:22:18.901,1,552,122302,102803,74.0
2026-04-18T19:22:18.911,1,553,122310,102851,74.0
2026-04-18T19:22:18.921,1,554,122310,102851,74.0
2026-04-18T19:22:18.931,1,555,122310,102851,74.0
2026-04-18T19:22:18.941,1,556,122310,102851,74.0
2026-04-18T19:22:18.951,1,557,122333,102918,74.0
2026-04-18T19:22:18.961,1,558,122333,102918,74.0
2026-04-18T19:22:18.971,1,559,122333,102918,74.0
2026-04-18T19:22:18.981,1,560,122333,102918,74.0
2026-04-18T19:22:18.991,1,561,122340,102961,74.0
2026-04-18T19:22:19.001,1,562,122340,102961,74.0
2026-04-18T19:22:19.011,1,563,122340,102961,74.0
2026-04-18T19:22:19.021,1,564,122340,102961,74.0
2026-04-18T19:22:19.031,1,565,122369,103036,74.0
2026-04-18T19:22:19.041,1,566,122369,103036,74.0
2026-04-18T19:22:19.051,1,567,122369,103036,74.0
2026-04-18T19:22:19.061,1,568,122369,103036,74.0
2026-04-18T19:22:19.070,1,569,122401,103093,74.0
2026-04-18T19:22:19.081,1,570,122401,103093,74.0
2026-04-18T19:22:19.091,1,571,122401,103093,74.0
2026-04-18T19:22:19.101,1,572,122401,103093,74.0
2026-04-18T19:22:19.111,1,573,122469,103164,74.0
2026-04-18T19:22:19.121,1,574,122469,103164,74.0
2026-04-18T19:22:19.131,1,575,122469,103164,74.0
2026-04-18T19:22:19.141,1,576,122469,103164,74.0
2026-04-18T19:22:19.151,1,577,122489,103215,74.0
2026-04-18T19:22:19.161,1,578,122489,103215,74.0
2026-04-18T19:22:19.171,1,579,122489,103215,74.0
2026-04-18T19:22:19.181,1,580,122489,103215,74.0
2026-04-18T19:22:19.191,1,581,122503,103227,74.0
2026-04-18T19:22:19.201,1,582,122503,103227,74.0
2026-04-18T19:22:19.211,1,583,122503,103227,74.0
2026-04-18T19:22:19.220,1,584,122503,103227,74.0
2026-04-18T19:22:19.230,1,585,122489,103187,74.0
2026-04-18T19:22:19.240,1,586,122489,103187,74.0
2026-04-18T19:22:19.251,1,587,122489,103187,74.0
2026-04-18T19:22:19.261,1,588,122489,103187,74.0
2026-04-18T19:22:19.271,1,589,122480,103162,74.0
2026-04-18T19:22:19.281,1,590,122480,103162,74.0
2026-04-18T19:22:19.291,1,591,122480,103162,74.0
2026-04-18T19:22:19.300,1,592,122480,103162,74.0
2026-04-18T19:22:19.311,1,593,122491,103148,74.0
2026-04-18T19:22:19.321,1,594,122491,103148,74.0
2026-04-18T19:22:19.331,1,595,122491,103148,74.0
2026-04-18T19:22:19.341,1,596,122491,103148,74.0
2026-04-18T19:22:19.350,1,597,122496,103168,74.0
2026-04-18T19:22:19.360,1,598,122496,103168,74.0
2026-04-18T19:22:19.370,1,599,122496,103168,74.0
2026-04-18T19:22:19.380,1,600,122496,103168,74.0
2026-04-18T19:22:19.390,1,601,122495,103160,74.0
2026-04-18T19:22:19.401,1,602,122495,103160,74.0
2026-04-18T19:22:19.411,1,603,122495,103160,74.0
2026-04-18T19:22:19.420,1,604,122495,103160,74.0
2026-04-18T19:22:19.431,1,605,122488,103153,74.0
2026-04-18T19:22:19.441,1,606,122488,103153,74.0
2026-04-18T19:22:19.450,1,607,122488,103153,74.0
2026-04-18T19:22:19.460,1,608,122488,103153,74.0
2026-04-18T19:22:19.471,1,609,122505,103138,74.0
2026-04-18T19:22:19.481,1,610,122505,103138,74.0
2026-04-18T19:22:19.490,1,611,122505,103138,74.0
2026-04-18T19:22:19.500,1,612,122505,103138,74.0
2026-04-18T19:22:19.510,1,613,122513,103138,74.0
2026-04-18T19:22:19.520,1,614,122513,103138,74.0
2026-04-18T19:22:19.531,1,615,122513,103138,74.0
2026-04-18T19:22:19.541,1,616,122513,103138,74.0
2026-04-18T19:22:19.550,1,617,122497,103087,74.0
2026-04-18T19:22:19.560,1,618,122497,103087,74.0
2026-04-18T19:22:19.570,1,619,122497,103087,74.0
2026-04-18T19:22:19.580,1,620,122497,103087,74.0
2026-04-18T19:22:19.590,1,621,122502,103084,74.0
2026-04-18T19:22:19.600,1,622,122502,103084,74.0
2026-04-18T19:22:19.610,1,623,122502,103084,74.0
2026-04-18T19:22:19.620,1,624,122502,103084,74.0
2026-04-18T19:22:19.631,1,625,122544,103125,74.0
2026-04-18T19:22:19.640,1,626,122544,103125,74.0
2026-04-18T19:22:19.650,1,627,122544,103125,74.0
2026-04-18T19:22:19.660,1,628,122544,103125,74.0
2026-04-18T19:22:19.670,1,629,122545,103160,74.0
2026-04-18T19:22:19.680,1,630,122545,103160,74.0
2026-04-18T19:22:19.691,1,631,122545,103160,74.0
2026-04-18T19:22:19.700,1,632,122545,103160,74.0
2026-04-18T19:22:19.710,1,633,122545,103205,74.0
2026-04-18T19:22:19.720,1,634,122545,103205,74.0
2026-04-18T19:22:19.730,1,635,122545,103205,74.0
2026-04-18T19:22:19.740,1,636,122545,103205,74.0
2026-04-18T19:22:19.750,1,637,122552,103244,74.0
2026-04-18T19:22:19.760,1,638,122552,103244,74.0
2026-04-18T19:22:19.770,1,639,122552,103244,74.0
2026-04-18T19:22:19.780,1,640,122552,103244,74.0
2026-04-18T19:22:19.790,1,641,122570,103292,74.0
2026-04-18T19:22:19.800,1,642,122570,103292,74.0
2026-04-18T19:22:19.810,1,643,122570,103292,74.0
2026-04-18T19:22:19.820,1,644,122570,103292,74.0
2026-04-18T19:22:19.830,1,645,122549,103285,74.0
2026-04-18T19:22:19.840,1,646,122549,103285,74.0
2026-04-18T19:22:19.850,1,647,122549,103285,74.0
2026-04-18T19:22:19.860,1,648,122549,103285,74.0
2026-04-18T19:22:19.870,1,649,122570,103326,74.0
2026-04-18T19:22:19.880,1,650,122570,103326,74.0
2026-04-18T19:22:19.890,1,651,122570,103326,74.0
2026-04-18T19:22:19.900,1,652,122570,103326,74.0
2026-04-18T19:22:19.909,1,653,122614,103390,74.0
2026-04-18T19:22:19.919,1,654,122614,103390,74.0
2026-04-18T19:22:19.929,1,655,122614,103390,74.0
2026-04-18T19:22:19.940,1,656,122614,103390,74.0
2026-04-18T19:22:19.950,1,657,122649,103450,74.0
2026-04-18T19:22:19.960,1,658,122649,103450,74.0
2026-04-18T19:22:19.970,1,659,122649,103450,74.0
2026-04-18T19:22:19.980,1,660,122649,103450,74.0
2026-04-18T19:22:19.990,1,661,122640,103425,74.0
2026-04-18T19:22:20.000,1,662,122640,103425,74.0
2026-04-18T19:22:20.010,1,663,122640,103425,74.0
2026-04-18T19:22:20.020,1,664,122640,103425,74.0
2026-04-18T19:22:20.030,1,665,122595,103337,74.0
2026-04-18T19:22:20.040,1,666,122595,103337,74.0
2026-04-18T19:22:20.050,1,667,122595,103337,74.0
2026-04-18T19:22:20.060,1,668,122595,103337,74.0
2026-04-18T19:22:20.070,1,669,122557,103214,74.0
2026-04-18T19:22:20.080,1,670,122557,103214,74.0
2026-04-18T19:22:20.090,1,671,122557,103214,74.0
2026-04-18T19:22:20.099,1,672,122557,103214,74.0
2026-04-18T19:22:20.110,1,673,122528,103151,74.0
2026-04-18T19:22:20.120,1,674,122528,103151,74.0
2026-04-18T19:22:20.130,1,675,122528,103151,74.0
2026-04-18T19:22:20.140,1,676,122528,103151,74.0
2026-04-18T19:22:20.150,1,677,122508,103105,74.0
2026-04-18T19:22:20.160,1,678,122508,103105,74.0
2026-04-18T19:22:20.170,1,679,122508,103105,74.0
2026-04-18T19:22:20.180,1,680,122508,103105,74.0
2026-04-18T19:22:20.190,1,681,122478,103052,74.0
2026-04-18T19:22:20.200,1,682,122478,103052,74.0
2026-04-18T19:22:20.210,1,683,122478,103052,74.0
2026-04-18T19:22:20.220,1,684,122478,103052,74.0
2026-04-18T19:22:20.229,1,685,122458,102987,74.0
2026-04-18T19:22:20.240,1,686,122458,102987,74.0
2026-04-18T19:22:20.249,1,687,122458,102987,74.0
2026-04-18T19:22:20.259,1,688,122458,102987,74.0
2026-04-18T19:22:20.269,1,689,122429,102900,74.0
2026-04-18T19:22:20.280,1,690,122429,102900,74.0
2026-04-18T19:22:20.289,1,691,122429,102900,74.0
2026-04-18T19:22:20.299,1,692,122429,102900,74.0
2026-04-18T19:22:20.309,1,693,122390,102839,74.0
2026-04-18T19:22:20.319,1,694,122390,102839,74.0
2026-04-18T19:22:20.329,1,695,122390,102839,74.0
2026-04-18T19:22:20.339,1,696,122390,102839,74.0
2026-04-18T19:22:20.349,1,697,122358,102739,74.0
2026-04-18T19:22:20.359,1,698,122358,102739,74.0
2026-04-18T19:22:20.369,1,699,122358,102739,74.0
2026-04-18T19:22:20.379,1,700,122358,102739,74.0
2026-04-18T19:22:20.389,1,701,122310,102641,74.0
2026-04-18T19:22:20.399,1,702,122310,102641,74.0
2026-04-18T19:22:20.409,1,703,122310,102641,74.0
2026-04-18T19:22:20.419,1,704,122310,102641,74.0
2026-04-18T19:22:20.429,1,705,122308,102621,74.0
2026-04-18T19:22:20.439,1,706,122308,102621,74.0
2026-04-18T19:22:20.449,1,707,122308,102621,74.0
2026-04-18T19:22:20.459,1,708,122308,102621,74.0
2026-04-18T19:22:20.469,1,709,122303,102569,74.0
2026-04-18T19:22:20.479,1,710,122303,102569,74.0
2026-04-18T19:22:20.489,1,711,122303,102569,74.0
2026-04-18T19:22:20.499,1,712,122303,102569,74.0
2026-04-18T19:22:20.509,1,713,122280,102568,74.0
2026-04-18T19:22:20.519,1,714,122280,102568,74.0
2026-04-18T19:22:20.529,1,715,122280,102568,74.0
2026-04-18T19:22:20.539,1,716,122280,102568,74.0
2026-04-18T19:22:20.549,1,717,122249,102557,74.0
2026-04-18T19:22:20.559,1,718,122249,102557,74.0
2026-04-18T19:22:20.569,1,719,122249,102557,74.0
2026-04-18T19:22:20.579,1,720,122249,102557,74.0
2026-04-18T19:22:20.590,1,721,122241,102545,74.0
2026-04-18T19:22:20.599,1,722,122241,102545,74.0
2026-04-18T19:22:20.610,1,723,122241,102545,74.0
2026-04-18T19:22:20.619,1,724,122241,102545,74.0
2026-04-18T19:22:20.629,1,725,122204,102516,74.0
2026-04-18T19:22:20.639,1,726,122204,102516,74.0
2026-04-18T19:22:20.649,1,727,122204,102516,74.0
2026-04-18T19:22:20.659,1,728,122204,102516,74.0
2026-04-18T19:22:20.669,1,729,122180,102473,74.0
2026-04-18T19:22:20.679,1,730,122180,102473,74.0
2026-04-18T19:22:20.689,1,731,122180,102473,74.0
2026-04-18T19:22:20.699,1,732,122180,102473,74.0
2026-04-18T19:22:20.709,1,733,122179,102454,74.0
2026-04-18T19:22:20.719,1,734,122179,102454,74.0
2026-04-18T19:22:20.729,1,735,122179,102454,74.0
2026-04-18T19:22:20.739,1,736,122179,102454,74.0
2026-04-18T19:22:20.749,1,737,122177,102453,74.0
2026-04-18T19:22:20.759,1,738,122177,102453,74.0
2026-04-18T19:22:20.769,1,739,122177,102453,74.0
2026-04-18T19:22:20.779,1,740,122177,102453,74.0
2026-04-18T19:22:20.789,1,741,122175,102429,74.0
2026-04-18T19:22:20.799,1,742,122175,102429,74.0
2026-04-18T19:22:20.809,1,743,122175,102429,74.0
2026-04-18T19:22:20.819,1,744,122175,102429,74.0
2026-04-18T19:22:20.829,1,745,122148,102387,74.0
2026-04-18T19:22:20.839,1,746,122148,102387,74.0
2026-04-18T19:22:20.849,1,747,122148,102387,74.0
2026-04-18T19:22:20.859,1,748,122148,102387,74.0
2026-04-18T19:22:20.869,1,749,122119,102315,74.0
2026-04-18T19:22:20.879,1,750,122119,102315,74.0
2026-04-18T19:22:20.889,1,751,122119,102315,74.0
2026-04-18T19:22:20.899,1,752,122119,102315,74.0
2026-04-18T19:22:20.909,1,753,122087,102259,74.0
2026-04-18T19:22:20.919,1,754,122087,102259,74.0
2026-04-18T19:22:20.929,1,755,122087,102259,74.0
2026-04-18T19:22:20.939,1,756,122087,102259,74.0
2026-04-18T19:22:20.949,1,757,122069,102219,74.0
2026-04-18T19:22:20.959,1,758,122069,102219,74.0
2026-04-18T19:22:20.969,1,759,122069,102219,74.0
2026-04-18T19:22:20.979,1,760,122069,102219,74.0
2026-04-18T19:22:20.989,1,761,122067,102196,74.0
2026-04-18T19:22:20.999,1,762,122067,102196,74.0
2026-04-18T19:22:21.009,1,763,122067,102196,74.0
2026-04-18T19:22:21.019,1,764,122067,102196,74.0
2026-04-18T19:22:21.029,1,765,122060,102173,74.0
2026-04-18T19:22:21.039,1,766,122060,102173,74.0
2026-04-18T19:22:21.049,1,767,122060,102173,74.0
2026-04-18T19:22:21.058,1,768,122060,102173,74.0
2026-04-18T19:22:21.069,1,769,122055,102178,74.0
2026-04-18T19:22:21.079,1,770,122055,102178,74.0
2026-04-18T19:22:21.089,1,771,122055,102178,74.0
2026-04-18T19:22:21.099,1,772,122055,102178,74.0
2026-04-18T19:22:21.108,1,773,122084,102217,74.0
2026-04-18T19:22:21.119,1,774,122084,102217,74.0
2026-04-18T19:22:21.129,1,775,122084,102217,74.0
2026-04-18T19:22:21.138,1,776,122084,102217,74.0
2026-04-18T19:22:21.148,1,777,122075,102205,74.0
2026-04-18T19:22:21.158,1,778,122075,102205,74.0
2026-04-18T19:22:21.168,1,779,122075,102205,74.0
2026-04-18T19:22:21.178,1,780,122075,102205,74.0
2026-04-18T19:22:21.188,1,781,122111,102243,74.0
2026-04-18T19:22:21.198,1,782,122111,102243,74.0
2026-04-18T19:22:21.208,1,783,122111,102243,74.0
2026-04-18T19:22:21.219,1,784,122111,102243,74.0
2026-04-18T19:22:21.228,1,785,122160,102338,74.0
2026-04-18T19:22:21.238,1,786,122160,102338,74.0
2026-04-18T19:22:21.248,1,787,122160,102338,74.0
2026-04-18T19:22:21.258,1,788,122160,102338,74.0
2026-04-18T19:22:21.268,1,789,122209,102417,74.0
2026-04-18T19:22:21.278,1,790,122209,102417,74.0
2026-04-18T19:22:21.288,1,791,122209,102417,74.0
2026-04-18T19:22:21.298,1,792,122209,102417,74.0
2026-04-18T19:22:21.308,1,793,122218,102509,74.0
2026-04-18T19:22:21.318,1,794,122218,102509,74.0
2026-04-18T19:22:21.328,1,795,122218,102509,74.0
2026-04-18T19:22:21.338,1,796,122218,102509,74.0
2026-04-18T19:22:21.348,1,797,122230,102576,74.0
2026-04-18T19:22:21.358,1,798,122230,102576,74.0
2026-04-18T19:22:21.368,1,799,122230,102576,74.0
2026-04-18T19:22:21.378,1,800,122230,102576,74.0
2026-04-18T19:22:21.388,1,801,122260,102643,74.0
2026-04-18T19:22:21.398,1,802,122260,102643,74.0
2026-04-18T19:22:21.408,1,803,122260,102643,74.0
2026-04-18T19:22:21.418,1,804,122260,102643,74.0
2026-04-18T19:22:21.428,1,805,122284,102706,74.0
2026-04-18T19:22:21.438,1,806,122284,102706,74.0
2026-04-18T19:22:21.448,1,807,122284,102706,74.0
2026-04-18T19:22:21.458,1,808,122284,102706,74.0
2026-04-18T19:22:21.468,1,809,122318,102806,74.0
2026-04-18T19:22:21.478,1,810,122318,102806,74.0
2026-04-18T19:22:21.488,1,811,122318,102806,74.0
2026-04-18T19:22:21.498,1,812,122318,102806,74.0
2026-04-18T19:22:21.508,1,813,122373,102900,74.0
2026-04-18T19:22:21.518,1,814,122373,102900,74.0
2026-04-18T19:22:21.528,1,815,122373,102900,74.0
2026-04-18T19:22:21.538,1,816,122373,102900,74.0
2026-04-18T19:22:21.548,1,817,122439,103012,74.0
2026-04-18T19:22:21.558,1,818,122439,103012,74.0
2026-04-18T19:22:21.568,1,819,122439,103012,74.0
2026-04-18T19:22:21.578,1,820,122439,103012,74.0
2026-04-18T19:22:21.588,1,821,122470,103079,74.0
2026-04-18T19:22:21.598,1,822,122470,103079,74.0
2026-04-18T19:22:21.608,1,823,122470,103079,74.0
2026-04-18T19:22:21.618,1,824,122470,103079,74.0
2026-04-18T19:22:21.628,1,825,122489,103110,74.0
2026-04-18T19:22:21.638,1,826,122489,103110,74.0
2026-04-18T19:22:21.648,1,827,122489,103110,74.0
2026-04-18T19:22:21.658,1,828,122489,103110,74.0
2026-04-18T19:22:21.668,1,829,122490,103103,74.0
2026-04-18T19:22:21.678,1,830,122490,103103,74.0
2026-04-18T19:22:21.688,1,831,122490,103103,74.0
2026-04-18T19:22:21.698,1,832,122490,103103,74.0
2026-04-18T19:22:21.708,1,833,122500,103129,74.0
2026-04-18T19:22:21.718,1,834,122500,103129,74.0
2026-04-18T19:22:21.728,1,835,122500,103129,74.0
2026-04-18T19:22:21.737,1,836,122500,103129,74.0
2026-04-18T19:22:21.748,1,837,122516,103146,74.0
2026-04-18T19:22:21.757,1,838,122516,103146,74.0
2026-04-18T19:22:21.767,1,839,122516,103146,74.0
2026-04-18T19:22:21.777,1,840,122516,103146,74.0
2026-04-18T19:22:21.787,1,841,122550,103180,74.0
2026-04-18T19:22:21.798,1,842,122550,103180,74.0
2026-04-18T19:22:21.808,1,843,122550,103180,74.0
2026-04-18T19:22:21.817,1,844,122550,103180,74.0
2026-04-18T19:22:21.828,1,845,122550,103153,74.0
2026-04-18T19:22:21.837,1,846,122550,103153,74.0
2026-04-18T19:22:21.848,1,847,122550,103153,74.0
2026-04-18T19:22:21.857,1,848,122550,103153,74.0
2026-04-18T19:22:21.867,1,849,122534,103144,74.0
2026-04-18T19:22:21.877,1,850,122534,103144,74.0
2026-04-18T19:22:21.887,1,851,122534,103144,74.0
2026-04-18T19:22:21.897,1,852,122534,103144,74.0
2026-04-18T19:22:21.908,1,853,122543,103158,74.0
2026-04-18T19:22:21.917,1,854,122543,103158,74.0
2026-04-18T19:22:21.928,1,855,122543,103158,74.0
2026-04-18T19:22:21.937,1,856,122543,103158,74.0
2026-04-18T19:22:21.948,1,857,122547,103131,74.0
2026-04-18T19:22:21.957,1,858,122547,103131,74.0
2026-04-18T19:22:21.967,1,859,122547,103131,74.0
2026-04-18T19:22:21.977,1,860,122547,103131,74.0
2026-04-18T19:22:21.987,1,861,122573,103160,74.0
2026-04-18T19:22:21.997,1,862,122573,103160,74.0
2026-04-18T19:22:22.007,1,863,122573,103160,74.0
2026-04-18T19:22:22.017,1,864,122573,103160,74.0
2026-04-18T19:22:22.027,1,865,122582,103167,74.0
2026-04-18T19:22:22.037,1,866,122582,103167,74.0
2026-04-18T19:22:22.047,1,867,122582,103167,74.0
2026-04-18T19:22:22.057,1,868,122582,103167,74.0
2026-04-18T19:22:22.067,1,869,122587,103212,74.0
2026-04-18T19:22:22.077,1,870,122587,103212,74.0
2026-04-18T19:22:22.087,1,871,122587,103212,74.0
2026-04-18T19:22:22.097,1,872,122587,103212,74.0
2026-04-18T19:22:22.107,1,873,122535,103145,74.0
2026-04-18T19:22:22.117,1,874,122535,103145,74.0
2026-04-18T19:22:22.127,1,875,122535,103145,74.0
2026-04-18T19:22:22.137,1,876,122535,103145,74.0
2026-04-18T19:22:22.147,1,877,122308,102762,74.0
2026-04-18T19:22:22.157,1,878,122308,102762,74.0
2026-04-18T19:22:22.167,1,879,122308,102762,74.0
2026-04-18T19:22:22.177,1,880,122308,102762,74.0
2026-04-18T19:22:22.187,1,881,122116,102398,74.0
2026-04-18T19:22:22.197,1,882,122116,102398,74.0
2026-04-18T19:22:22.207,1,883,122116,102398,74.0
2026-04-18T19:22:22.217,1,884,122116,102398,74.0
2026-04-18T19:22:22.227,1,885,122023,102231,74.0
2026-04-18T19:22:22.237,1,886,122023,102231,74.0
2026-04-18T19:22:22.247,1,887,122023,102231,74.0
2026-04-18T19:22:22.257,1,888,122023,102231,74.0
2026-04-18T19:22:22.267,1,889,122029,102273,74.0
2026-04-18T19:22:22.277,1,890,122029,102273,74.0
2026-04-18T19:22:22.287,1,891,122029,102273,74.0
2026-04-18T19:22:22.297,1,892,122029,102273,74.0
2026-04-18T19:22:22.307,1,893,122143,102495,74.0
2026-04-18T19:22:22.317,1,894,122143,102495,74.0
2026-04-18T19:22:22.327,1,895,122143,102495,74.0
2026-04-18T19:22:22.337,1,896,122143,102495,74.0
2026-04-18T19:22:22.347,1,897,122199,102613,74.0
2026-04-18T19:22:22.357,1,898,122199,102613,74.0
2026-04-18T19:22:22.367,1,899,122199,102613,74.0
2026-04-18T19:22:22.377,1,900,122199,102613,74.0
2026-04-18T19:22:22.387,1,901,122203,102646,74.0
2026-04-18T19:22:22.396,1,902,122203,102646,74.0
2026-04-18T19:22:22.407,1,903,122203,102646,74.0
2026-04-18T19:22:22.417,1,904,122203,102646,74.0
2026-04-18T19:22:22.427,1,905,122168,102582,74.0
2026-04-18T19:22:22.437,1,906,122168,102582,74.0
2026-04-18T19:22:22.447,1,907,122168,102582,74.0
2026-04-18T19:22:22.457,1,908,122168,102582,74.0
2026-04-18T19:22:22.467,1,909,122126,102497,74.0
2026-04-18T19:22:22.477,1,910,122126,102497,74.0
2026-04-18T19:22:22.487,1,911,122126,102497,74.0
2026-04-18T19:22:22.497,1,912,122126,102497,74.0
2026-04-18T19:22:22.506,1,913,122159,102536,74.0
2026-04-18T19:22:22.517,1,914,122159,102536,74.0
2026-04-18T19:22:22.526,1,915,122159,102536,74.0
2026-04-18T19:22:22.537,1,916,122159,102536,74.0
2026-04-18T19:22:22.546,1,917,122215,102631,74.0
2026-04-18T19:22:22.556,1,918,122215,102631,74.0
2026-04-18T19:22:22.566,1,919,122215,102631,74.0
2026-04-18T19:22:22.576,1,920,122215,102631,74.0
2026-04-18T19:22:22.587,1,921,122289,102772,74.0
2026-04-18T19:22:22.596,1,922,122289,102772,74.0
2026-04-18T19:22:22.607,1,923,122289,102772,74.0
2026-04-18T19:22:22.617,1,924,122289,102772,74.0
2026-04-18T19:22:22.626,1,925,122382,102946,74.0
2026-04-18T19:22:22.636,1,926,122382,102946,74.0
2026-04-18T19:22:22.646,1,927,122382,102946,74.0
2026-04-18T19:22:22.656,1,928,122382,102946,74.0
2026-04-18T19:22:22.666,1,929,122430,102996,74.0
2026-04-18T19:22:22.676,1,930,122430,102996,74.0
2026-04-18T19:22:22.686,1,931,122430,102996,74.0
2026-04-18T19:22:22.696,1,932,122430,102996,74.0
2026-04-18T19:22:22.706,1,933,122439,103011,74.0
2026-04-18T19:22:22.716,1,934,122439,103011,74.0
2026-04-18T19:22:22.726,1,935,122439,103011,74.0
2026-04-18T19:22:22.736,1,936,122439,103011,74.0
2026-04-18T19:22:22.746,1,937,122477,103040,74.0
2026-04-18T19:22:22.756,1,938,122477,103040,74.0
2026-04-18T19:22:22.766,1,939,122477,103040,74.0
2026-04-18T19:22:22.776,1,940,122477,103040,74.0
2026-04-18T19:22:22.786,1,941,122529,103127,74.0
2026-04-18T19:22:22.796,1,942,122529,103127,74.0
2026-04-18T19:22:22.806,1,943,122529,103127,74.0
2026-04-18T19:22:22.816,1,944,122529,103127,74.0
2026-04-18T19:22:22.826,1,945,122530,103101,74.0
2026-04-18T19:22:22.837,1,946,122530,103101,74.0
2026-04-18T19:22:22.847,1,947,122530,103101,74.0
2026-04-18T19:22:22.857,1,948,122530,103101,74.0
2026-04-18T19:22:22.866,1,949,122540,103153,74.0
2026-04-18T19:22:22.877,1,950,122540,103153,74.0
2026-04-18T19:22:22.887,1,951,122540,103153,74.0
2026-04-18T19:22:22.897,1,952,122540,103153,74.0
2026-04-18T19:22:22.906,1,953,122543,103193,74.0
2026-04-18T19:22:22.917,1,954,122543,103193,74.0
2026-04-18T19:22:22.927,1,955,122543,103193,74.0
2026-04-18T19:22:22.937,1,956,122543,103193,74.0
2026-04-18T19:22:22.946,1,957,122552,103247,74.0
2026-04-18T19:22:22.957,1,958,122552,103247,74.0
2026-04-18T19:22:22.966,1,959,122552,103247,74.0
2026-04-18T19:22:22.976,1,960,122552,103247,74.0
2026-04-18T19:22:22.986,1,961,122527,103214,74.0
2026-04-18T19:22:22.996,1,962,122527,103214,74.0
2026-04-18T19:22:23.006,1,963,122527,103214,74.0
2026-04-18T19:22:23.016,1,964,122527,103214,74.0
2026-04-18T19:22:23.026,1,965,122482,103118,74.0
2026-04-18T19:22:23.036,1,966,122482,103118,74.0
2026-04-18T19:22:23.046,1,967,122482,103118,74.0
2026-04-18T19:22:23.056,1,968,122482,103118,74.0
2026-04-18T19:22:23.066,1,969,122450,103061,74.0
2026-04-18T19:22:23.077,1,970,122450,103061,74.0
2026-04-18T19:22:23.086,1,971,122450,103061,74.0
2026-04-18T19:22:23.096,1,972,122450,103061,74.0
2026-04-18T19:22:23.107,1,973,122450,103065,74.0
2026-04-18T19:22:23.116,1,974,122450,103065,74.0
2026-04-18T19:22:23.126,1,975,122450,103065,74.0
2026-04-18T19:22:23.137,1,976,122450,103065,74.0
2026-04-18T19:22:23.146,1,977,122416,102986,74.0
2026-04-18T19:22:23.156,1,978,122416,102986,74.0
2026-04-18T19:22:23.166,1,979,122416,102986,74.0
2026-04-18T19:22:23.176,1,980,122416,102986,74.0
2026-04-18T19:22:23.186,1,981,122367,102903,74.0
2026-04-18T19:22:23.196,1,982,122367,102903,74.0
2026-04-18T19:22:23.206,1,983,122367,102903,74.0
2026-04-18T19:22:23.216,1,984,122367,102903,74.0
2026-04-18T19:22:23.226,1,985,122275,102743,74.0
2026-04-18T19:22:23.236,1,986,122275,102743,74.0
2026-04-18T19:22:23.246,1,987,122275,102743,74.0
2026-04-18T19:22:23.255,1,988,122275,102743,74.0
2026-04-18T19:22:23.266,1,989,122241,102677,74.0
2026-04-18T19:22:23.276,1,990,122241,102677,74.0
2026-04-18T19:22:23.286,1,991,122241,102677,74.0
2026-04-18T19:22:23.296,1,992,122241,102677,74.0
2026-04-18T19:22:23.306,1,993,122179,102586,74.0
2026-04-18T19:22:23.315,1,994,122179,102586,74.0
2026-04-18T19:22:23.326,1,995,122179,102586,74.0
2026-04-18T19:22:23.335,1,996,122179,102586,74.0
2026-04-18T19:22:23.346,1,997,122151,102519,74.0
2026-04-18T19:22:23.356,1,998,122151,102519,74.0
2026-04-18T19:22:23.366,1,999,122151,102519,74.0
2026-04-18T19:22:23.376,1,1000,122151,102519,74.0
2026-04-18T19:22:23.386,1,1001,122069,102362,74.0
2026-04-18T19:22:30.069,2,0,130337,116769,77.0
2026-04-18T19:22:30.079,2,1,130337,116769,77.0
2026-04-18T19:22:30.089,2,2,130337,116769,77.0
2026-04-18T19:22:30.099,2,3,129968,116068,77.0
2026-04-18T19:22:30.108,2,4,129968,116068,77.0
2026-04-18T19:22:30.119,2,5,129968,116068,77.0
2026-04-18T19:22:30.129,2,6,129968,116068,77.0
2026-04-18T19:22:30.139,2,7,129523,115241,77.0
2026-04-18T19:22:30.149,2,8,129523,115241,77.0
2026-04-18T19:22:30.159,2,9,129523,115241,77.0
2026-04-18T19:22:30.169,2,10,129523,115241,77.0
2026-04-18T19:22:30.179,2,11,129383,114923,77.0
2026-04-18T19:22:30.189,2,12,129383,114923,77.0
2026-04-18T19:22:30.199,2,13,129383,114923,77.0
2026-04-18T19:22:30.208,2,14,129383,114923,77.0
2026-04-18T19:22:30.218,2,15,128779,113878,77.0
2026-04-18T19:22:30.228,2,16,128779,113878,77.0
2026-04-18T19:22:30.238,2,17,128779,113878,77.0
2026-04-18T19:22:30.248,2,18,128779,113878,77.0
2026-04-18T19:22:30.259,2,19,128319,113026,77.0
2026-04-18T19:22:30.269,2,20,128319,113026,77.0
2026-04-18T19:22:30.279,2,21,128319,113026,77.0
2026-04-18T19:22:30.289,2,22,128319,113026,77.0
2026-04-18T19:22:30.299,2,23,127765,112048,77.0
2026-04-18T19:22:30.309,2,24,127765,112048,77.0
2026-04-18T19:22:30.319,2,25,127765,112048,77.0
2026-04-18T19:22:30.329,2,26,127765,112048,77.0
2026-04-18T19:22:30.339,2,27,127715,112012,77.0
2026-04-18T19:22:30.349,2,28,127715,112012,77.0
2026-04-18T19:22:30.359,2,29,127715,112012,77.0
2026-04-18T19:22:30.369,2,30,127715,112012,77.0
2026-04-18T19:22:30.379,2,31,127638,112097,77.0
2026-04-18T19:22:30.389,2,32,127638,112097,77.0
2026-04-18T19:22:30.398,2,33,127638,112097,77.0
2026-04-18T19:22:30.408,2,34,127638,112097,77.0
2026-04-18T19:22:30.419,2,35,127429,111881,77.0
2026-04-18T19:22:30.429,2,36,127429,111881,77.0
2026-04-18T19:22:30.439,2,37,127429,111881,77.0
2026-04-18T19:22:30.449,2,38,127429,111881,77.0
2026-04-18T19:22:30.459,2,39,127091,111292,77.0
2026-04-18T19:22:30.468,2,40,127091,111292,77.0
2026-04-18T19:22:30.478,2,41,127091,111292,77.0
2026-04-18T19:22:30.489,2,42,127091,111292,77.0
2026-04-18T19:22:30.498,2,43,126424,110025,77.0
2026-04-18T19:22:30.508,2,44,126424,110025,77.0
2026-04-18T19:22:30.518,2,45,126424,110025,77.0
2026-04-18T19:22:30.529,2,46,126424,110025,77.0
2026-04-18T19:22:30.538,2,47,125934,109069,77.0
2026-04-18T19:22:30.548,2,48,125934,109069,77.0
2026-04-18T19:22:30.559,2,49,125934,109069,77.0
2026-04-18T19:22:30.569,2,50,125934,109069,77.0
2026-04-18T19:22:30.579,2,51,125745,108659,77.0
2026-04-18T19:22:30.589,2,52,125745,108659,77.0
2026-04-18T19:22:30.598,2,53,125745,108659,77.0
2026-04-18T19:22:30.608,2,54,125745,108659,77.0
2026-04-18T19:22:30.618,2,55,125761,108711,77.0
2026-04-18T19:22:30.629,2,56,125761,108711,77.0
2026-04-18T19:22:30.638,2,57,125761,108711,77.0
2026-04-18T19:22:30.648,2,58,125761,108711,77.0
2026-04-18T19:22:30.658,2,59,125714,108601,77.0
2026-04-18T19:22:30.668,2,60,125714,108601,77.0
2026-04-18T19:22:30.678,2,61,125714,108601,77.0
2026-04-18T19:22:30.688,2,62,125714,108601,77.0
2026-04-18T19:22:30.698,2,63,125638,108441,77.0
2026-04-18T19:22:30.708,2,64,125638,108441,77.0
2026-04-18T19:22:30.718,2,65,125638,108441,77.0
2026-04-18T19:22:30.728,2,66,125638,108441,77.0
2026-04-18T19:22:30.738,2,67,125505,108182,77.0
2026-04-18T19:22:30.749,2,68,125505,108182,77.0
2026-04-18T19:22:30.758,2,69,125505,108182,77.0
2026-04-18T19:22:30.769,2,70,125505,108182,77.0
2026-04-18T19:22:30.778,2,71,125568,108306,77.0
2026-04-18T19:22:30.789,2,72,125568,108306,77.0
2026-04-18T19:22:30.799,2,73,125568,108306,77.0
2026-04-18T19:22:30.808,2,74,125568,108306,77.0
2026-04-18T19:22:30.818,2,75,125496,108175,77.0
2026-04-18T19:22:30.828,2,76,125496,108175,77.0
2026-04-18T19:22:30.838,2,77,125496,108175,77.0
2026-04-18T19:22:30.848,2,78,125496,108175,77.0
2026-04-18T19:22:30.858,2,79,125160,107524,77.0
2026-04-18T19:22:30.868,2,80,125160,107524,77.0
2026-04-18T19:22:30.878,2,81,125160,107524,77.0
2026-04-18T19:22:30.888,2,82,125160,107524,77.0
2026-04-18T19:22:30.898,2,83,124901,107083,77.0
2026-04-18T19:22:30.908,2,84,124901,107083,77.0
2026-04-18T19:22:30.918,2,85,124901,107083,77.0
2026-04-18T19:22:30.928,2,86,124901,107083,77.0
2026-04-18T19:22:30.938,2,87,124687,106693,77.0
2026-04-18T19:22:30.948,2,88,124687,106693,77.0
2026-04-18T19:22:30.958,2,89,124687,106693,77.0
2026-04-18T19:22:30.968,2,90,124687,106693,77.0
2026-04-18T19:22:30.978,2,91,124625,106527,77.0
2026-04-18T19:22:30.988,2,92,124625,106527,77.0
2026-04-18T19:22:30.998,2,93,124625,106527,77.0
2026-04-18T19:22:31.008,2,94,124625,106527,77.0
2026-04-18T19:22:31.018,2,95,124629,106499,77.0
2026-04-18T19:22:31.028,2,96,124629,106499,77.0
2026-04-18T19:22:31.038,2,97,124629,106499,77.0
2026-04-18T19:22:31.048,2,98,124629,106499,77.0
2026-04-18T19:22:31.058,2,99,124551,106401,77.0
2026-04-18T19:22:31.068,2,100,124551,106401,77.0
2026-04-18T19:22:31.078,2,101,124551,106401,77.0
2026-04-18T19:22:31.088,2,102,124551,106401,77.0
2026-04-18T19:22:31.098,2,103,124368,106121,77.0
2026-04-18T19:22:31.107,2,104,124368,106121,77.0
2026-04-18T19:22:31.117,2,105,124368,106121,77.0
2026-04-18T19:22:31.127,2,106,124368,106121,77.0
2026-04-18T19:22:31.137,2,107,124148,105743,77.0
2026-04-18T19:22:31.147,2,108,124148,105743,77.0
2026-04-18T19:22:31.157,2,109,124148,105743,77.0
2026-04-18T19:22:31.168,2,110,124148,105743,77.0
2026-04-18T19:22:31.178,2,111,123915,105388,77.0
2026-04-18T19:22:31.187,2,112,123915,105388,77.0
2026-04-18T19:22:31.198,2,113,123915,105388,77.0
2026-04-18T19:22:31.207,2,114,123915,105388,77.0
2026-04-18T19:22:31.217,2,115,123717,105059,77.0
2026-04-18T19:22:31.227,2,116,123717,105059,77.0
2026-04-18T19:22:31.237,2,117,123717,105059,77.0
2026-04-18T19:22:31.247,2,118,123717,105059,77.0
2026-04-18T19:22:31.258,2,119,123520,104705,77.0
2026-04-18T19:22:31.267,2,120,123520,104705,77.0
2026-04-18T19:22:31.278,2,121,123520,104705,77.0
2026-04-18T19:22:31.287,2,122,123520,104705,77.0
2026-04-18T19:22:31.298,2,123,123475,104624,77.0
2026-04-18T19:22:31.307,2,124,123475,104624,77.0
2026-04-18T19:22:31.318,2,125,123475,104624,77.0
2026-04-18T19:22:31.327,2,126,123475,104624,77.0
2026-04-18T19:22:31.337,2,127,123428,104553,77.0
2026-04-18T19:22:31.347,2,128,123428,104553,77.0
2026-04-18T19:22:31.357,2,129,123428,104553,77.0
2026-04-18T19:22:31.367,2,130,123428,104553,77.0
2026-04-18T19:22:31.377,2,131,123407,104508,77.0
2026-04-18T19:22:31.387,2,132,123407,104508,77.0
2026-04-18T19:22:31.397,2,133,123407,104508,77.0
2026-04-18T19:22:31.407,2,134,123407,104508,77.0
2026-04-18T19:22:31.417,2,135,123353,104419,77.0
2026-04-18T19:22:31.427,2,136,123353,104419,77.0
2026-04-18T19:22:31.437,2,137,123353,104419,77.0
2026-04-18T19:22:31.447,2,138,123353,104419,77.0
2026-04-18T19:22:31.457,2,139,123323,104332,77.0
2026-04-18T19:22:31.467,2,140,123323,104332,77.0
2026-04-18T19:22:31.477,2,141,123323,104332,77.0
2026-04-18T19:22:31.487,2,142,123323,104332,77.0
2026-04-18T19:22:31.497,2,143,123310,104302,77.0
2026-04-18T19:22:31.507,2,144,123310,104302,77.0
2026-04-18T19:22:31.517,2,145,123310,104302,77.0
2026-04-18T19:22:31.527,2,146,123310,104302,77.0
2026-04-18T19:22:31.537,2,147,123306,104304,77.0
2026-04-18T19:22:31.547,2,148,123306,104304,77.0
2026-04-18T19:22:31.557,2,149,123306,104304,77.0
2026-04-18T19:22:31.567,2,150,123306,104304,77.0
2026-04-18T19:22:31.577,2,151,123290,104290,77.0
2026-04-18T19:22:31.587,2,152,123290,104290,77.0
2026-04-18T19:22:31.597,2,153,123290,104290,77.0
2026-04-18T19:22:31.607,2,154,123290,104290,77.0
2026-04-18T19:22:31.617,2,155,123273,104292,77.0
2026-04-18T19:22:31.627,2,156,123273,104292,77.0
2026-04-18T19:22:31.637,2,157,123273,104292,77.0
2026-04-18T19:22:31.647,2,158,123273,104292,77.0
2026-04-18T19:22:31.657,2,159,123278,104319,77.0
2026-04-18T19:22:31.667,2,160,123278,104319,77.0
2026-04-18T19:22:31.677,2,161,123278,104319,77.0
2026-04-18T19:22:31.687,2,162,123278,104319,77.0
2026-04-18T19:22:31.697,2,163,123351,104451,77.0
2026-04-18T19:22:31.707,2,164,123351,104451,77.0
2026-04-18T19:22:31.717,2,165,123351,104451,77.0
2026-04-18T19:22:31.727,2,166,123351,104451,77.0
2026-04-18T19:22:31.737,2,167,123420,104550,77.0
2026-04-18T19:22:31.747,2,168,123420,104550,77.0
2026-04-18T19:22:31.757,2,169,123420,104550,77.0
2026-04-18T19:22:31.767,2,170,123420,104550,77.0
2026-04-18T19:22:31.777,2,171,123504,104710,77.0
2026-04-18T19:22:31.787,2,172,123504,104710,77.0
2026-04-18T19:22:31.797,2,173,123504,104710,77.0
2026-04-18T19:22:31.807,2,174,123504,104710,77.0
2026-04-18T19:22:31.817,2,175,123561,104781,77.0
2026-04-18T19:22:31.827,2,176,123561,104781,77.0
2026-04-18T19:22:31.837,2,177,123561,104781,77.0
2026-04-18T19:22:31.847,2,178,123561,104781,77.0
2026-04-18T19:22:31.857,2,179,123570,104786,77.0
2026-04-18T19:22:31.866,2,180,123570,104786,77.0
2026-04-18T19:22:31.876,2,181,123570,104786,77.0
2026-04-18T19:22:31.886,2,182,123570,104786,77.0
2026-04-18T19:22:31.896,2,183,123579,104791,77.0
2026-04-18T19:22:31.906,2,184,123579,104791,77.0
2026-04-18T19:22:31.916,2,185,123579,104791,77.0
2026-04-18T19:22:31.926,2,186,123579,104791,77.0
2026-04-18T19:22:31.937,2,187,123652,104880,77.0
2026-04-18T19:22:31.946,2,188,123652,104880,77.0
2026-04-18T19:22:31.957,2,189,123652,104880,77.0
2026-04-18T19:22:31.966,2,190,123652,104880,77.0
2026-04-18T19:22:31.977,2,191,123717,104987,77.0
2026-04-18T19:22:31.986,2,192,123717,104987,77.0
2026-04-18T19:22:31.996,2,193,123717,104987,77.0
2026-04-18T19:22:32.006,2,194,123717,104987,77.0
2026-04-18T19:22:32.016,2,195,123770,105069,77.0
2026-04-18T19:22:32.026,2,196,123770,105069,77.0
2026-04-18T19:22:32.036,2,197,123770,105069,77.0
2026-04-18T19:22:32.047,2,198,123770,105069,77.0
2026-04-18T19:22:32.056,2,199,123788,105097,77.0
2026-04-18T19:22:32.066,2,200,123788,105097,77.0
2026-04-18T19:22:32.076,2,201,123788,105097,77.0
2026-04-18T19:22:32.086,2,202,123788,105097,77.0
2026-04-18T19:22:32.096,2,203,123816,105126,77.0
2026-04-18T19:22:32.106,2,204,123816,105126,77.0
2026-04-18T19:22:32.116,2,205,123816,105126,77.0
2026-04-18T19:22:32.126,2,206,123816,105126,77.0
2026-04-18T19:22:32.136,2,207,123803,105131,77.0
2026-04-18T19:22:32.147,2,208,123803,105131,77.0
2026-04-18T19:22:32.156,2,209,123803,105131,77.0
2026-04-18T19:22:32.166,2,210,123803,105131,77.0
2026-04-18T19:22:32.176,2,211,123827,105126,77.0
2026-04-18T19:22:32.186,2,212,123827,105126,77.0
2026-04-18T19:22:32.196,2,213,123827,105126,77.0
2026-04-18T19:22:32.206,2,214,123827,105126,77.0
2026-04-18T19:22:32.217,2,215,123823,105102,77.0
2026-04-18T19:22:32.226,2,216,123823,105102,77.0
2026-04-18T19:22:32.236,2,217,123823,105102,77.0
2026-04-18T19:22:32.246,2,218,123823,105102,77.0
2026-04-18T19:22:32.256,2,219,123851,105131,77.0
2026-04-18T19:22:32.266,2,220,123851,105131,77.0
2026-04-18T19:22:32.276,2,221,123851,105131,77.0
2026-04-18T19:22:32.286,2,222,123851,105131,77.0
2026-04-18T19:22:32.296,2,223,123916,105249,77.0
2026-04-18T19:22:32.306,2,224,123916,105249,77.0
2026-04-18T19:22:32.317,2,225,123916,105249,77.0
2026-04-18T19:22:32.327,2,226,123916,105249,77.0
2026-04-18T19:22:32.336,2,227,124002,105419,77.0
2026-04-18T19:22:32.346,2,228,124002,105419,77.0
2026-04-18T19:22:32.357,2,229,124002,105419,77.0
2026-04-18T19:22:32.366,2,230,124002,105419,77.0
2026-04-18T19:22:32.376,2,231,124098,105622,77.0
2026-04-18T19:22:32.386,2,232,124098,105622,77.0
2026-04-18T19:22:32.396,2,233,124098,105622,77.0
2026-04-18T19:22:32.406,2,234,124098,105622,77.0
2026-04-18T19:22:32.416,2,235,124215,105881,77.0
2026-04-18T19:22:32.426,2,236,124215,105881,77.0
2026-04-18T19:22:32.436,2,237,124215,105881,77.0
2026-04-18T19:22:32.446,2,238,124215,105881,77.0
2026-04-18T19:22:32.456,2,239,124399,106173,77.0
2026-04-18T19:22:32.466,2,240,124399,106173,77.0
2026-04-18T19:22:32.476,2,241,124399,106173,77.0
2026-04-18T19:22:32.486,2,242,124399,106173,77.0
2026-04-18T19:22:32.496,2,243,124571,106476,77.0
2026-04-18T19:22:32.506,2,244,124571,106476,77.0
2026-04-18T19:22:32.516,2,245,124571,106476,77.0
2026-04-18T19:22:32.526,2,246,124571,106476,77.0
2026-04-18T19:22:32.536,2,247,124766,106832,77.0
2026-04-18T19:22:32.546,2,248,124766,106832,77.0
2026-04-18T19:22:32.556,2,249,124766,106832,77.0
2026-04-18T19:22:32.566,2,250,124766,106832,77.0
2026-04-18T19:22:32.576,2,251,125017,107239,77.0
2026-04-18T19:22:32.586,2,252,125017,107239,77.0
2026-04-18T19:22:32.596,2,253,125017,107239,77.0
2026-04-18T19:22:32.606,2,254,125017,107239,77.0
2026-04-18T19:22:32.616,2,255,125174,107505,77.0
2026-04-18T19:22:32.626,2,256,125174,107505,77.0
2026-04-18T19:22:32.636,2,257,125174,107505,77.0
2026-04-18T19:22:32.646,2,258,125174,107505,77.0
2026-04-18T19:22:32.656,2,259,125288,107695,77.0
2026-04-18T19:22:32.665,2,260,125288,107695,77.0
2026-04-18T19:22:32.676,2,261,125288,107695,77.0
2026-04-18T19:22:32.686,2,262,125288,107695,77.0
2026-04-18T19:22:32.696,2,263,125322,107741,77.0
2026-04-18T19:22:32.706,2,264,125322,107741,77.0
2026-04-18T19:22:32.716,2,265,125322,107741,77.0
2026-04-18T19:22:32.726,2,266,125322,107741,77.0
2026-04-18T19:22:32.736,2,267,125363,107785,77.0
2026-04-18T19:22:32.746,2,268,125363,107785,77.0
2026-04-18T19:22:32.756,2,269,125363,107785,77.0
2026-04-18T19:22:32.766,2,270,125363,107785,77.0
2026-04-18T19:22:32.775,2,271,125388,107793,77.0
2026-04-18T19:22:32.786,2,272,125388,107793,77.0
2026-04-18T19:22:32.796,2,273,125388,107793,77.0
2026-04-18T19:22:32.806,2,274,125388,107793,77.0
2026-04-18T19:22:32.816,2,275,125423,107823,77.0
2026-04-18T19:22:32.826,2,276,125423,107823,77.0
2026-04-18T19:22:32.836,2,277,125423,107823,77.0
2026-04-18T19:22:32.846,2,278,125423,107823,77.0
2026-04-18T19:22:32.856,2,279,125390,107791,77.0
2026-04-18T19:22:32.866,2,280,125390,107791,77.0
2026-04-18T19:22:32.876,2,281,125390,107791,77.0
2026-04-18T19:22:32.886,2,282,125390,107791,77.0
2026-04-18T19:22:32.896,2,283,125443,107862,77.0
2026-04-18T19:22:32.906,2,284,125443,107862,77.0
2026-04-18T19:22:32.916,2,285,125443,107862,77.0
2026-04-18T19:22:32.926,2,286,125443,107862,77.0
2026-04-18T19:22:32.935,2,287,125518,107981,77.0
2026-04-18T19:22:32.945,2,288,125518,107981,77.0
2026-04-18T19:22:32.955,2,289,125518,107981,77.0
2026-04-18T19:22:32.966,2,290,125518,107981,77.0
2026-04-18T19:22:32.976,2,291,125520,107956,77.0
2026-04-18T19:22:32.986,2,292,125520,107956,77.0
2026-04-18T19:22:32.996,2,293,125520,107956,77.0
2026-04-18T19:22:33.006,2,294,125520,107956,77.0
2026-04-18T19:22:33.015,2,295,125524,107960,77.0
2026-04-18T19:22:33.026,2,296,125524,107960,77.0
2026-04-18T19:22:33.035,2,297,125524,107960,77.0
2026-04-18T19:22:33.045,2,298,125524,107960,77.0
2026-04-18T19:22:33.055,2,299,125569,108020,77.0
2026-04-18T19:22:33.065,2,300,125569,108020,77.0
2026-04-18T19:22:33.075,2,301,125569,108020,77.0
2026-04-18T19:22:33.085,2,302,125569,108020,77.0
2026-04-18T19:22:33.095,2,303,125654,108177,77.0
2026-04-18T19:22:33.105,2,304,125654,108177,77.0
2026-04-18T19:22:33.115,2,305,125654,108177,77.0
2026-04-18T19:22:33.125,2,306,125654,108177,77.0
2026-04-18T19:22:33.135,2,307,125688,108270,77.0
2026-04-18T19:22:33.145,2,308,125688,108270,77.0
2026-04-18T19:22:33.155,2,309,125688,108270,77.0
2026-04-18T19:22:33.165,2,310,125688,108270,77.0
2026-04-18T19:22:33.175,2,311,125772,108450,77.0
2026-04-18T19:22:33.185,2,312,125772,108450,77.0
2026-04-18T19:22:33.195,2,313,125772,108450,77.0
2026-04-18T19:22:33.205,2,314,125772,108450,77.0
2026-04-18T19:22:33.215,2,315,125904,108713,77.0
2026-04-18T19:22:33.225,2,316,125904,108713,77.0
2026-04-18T19:22:33.235,2,317,125904,108713,77.0
2026-04-18T19:22:33.245,2,318,125904,108713,77.0
2026-04-18T19:22:33.255,2,319,125964,108855,77.0
2026-04-18T19:22:33.265,2,320,125964,108855,77.0
2026-04-18T19:22:33.275,2,321,125964,108855,77.0
2026-04-18T19:22:33.285,2,322,125964,108855,77.0
2026-04-18T19:22:33.295,2,323,126024,108993,77.0
2026-04-18T19:22:33.305,2,324,126024,108993,77.0
2026-04-18T19:22:33.315,2,325,126024,108993,77.0
2026-04-18T19:22:33.325,2,326,126024,108993,77.0
2026-04-18T19:22:33.335,2,327,126130,109165,77.0
2026-04-18T19:22:33.345,2,328,126130,109165,77.0
2026-04-18T19:22:33.355,2,329,126130,109165,77.0
2026-04-18T19:22:33.365,2,330,126130,109165,77.0
2026-04-18T19:22:33.375,2,331,126205,109276,77.0
2026-04-18T19:22:33.385,2,332,126205,109276,77.0
2026-04-18T19:22:33.395,2,333,126205,109276,77.0
2026-04-18T19:22:33.405,2,334,126205,109276,77.0
2026-04-18T19:22:33.415,2,335,126187,109236,77.0
2026-04-18T19:22:33.425,2,336,126187,109236,77.0
2026-04-18T19:22:33.435,2,337,126187,109236,77.0
2026-04-18T19:22:33.445,2,338,126187,109236,77.0
2026-04-18T19:22:33.455,2,339,126155,109204,77.0
2026-04-18T19:22:33.465,2,340,126155,109204,77.0
2026-04-18T19:22:33.475,2,341,126155,109204,77.0
2026-04-18T19:22:33.485,2,342,126155,109204,77.0
2026-04-18T19:22:33.495,2,343,126135,109156,77.0
2026-04-18T19:22:33.505,2,344,126135,109156,77.0
2026-04-18T19:22:33.515,2,345,126135,109156,77.0
2026-04-18T19:22:33.525,2,346,126135,109156,77.0
2026-04-18T19:22:33.535,2,347,126145,109167,77.0
2026-04-18T19:22:33.545,2,348,126145,109167,77.0
2026-04-18T19:22:33.555,2,349,126145,109167,77.0
2026-04-18T19:22:33.565,2,350,126145,109167,77.0
2026-04-18T19:22:33.575,2,351,126101,109076,77.0
2026-04-18T19:22:33.585,2,352,126101,109076,77.0
2026-04-18T19:22:33.595,2,353,126101,109076,77.0
2026-04-18T19:22:33.605,2,354,126101,109076,77.0
2026-04-18T19:22:33.615,2,355,125993,108848,77.0
2026-04-18T19:22:33.625,2,356,125993,108848,77.0
2026-04-18T19:22:33.635,2,357,125993,108848,77.0
2026-04-18T19:22:33.645,2,358,125993,108848,77.0
2026-04-18T19:22:33.654,2,359,125903,108646,77.0
2026-04-18T19:22:33.665,2,360,125903,108646,77.0
2026-04-18T19:22:33.675,2,361,125903,108646,77.0
2026-04-18T19:22:33.685,2,362,125903,108646,77.0
2026-04-18T19:22:33.694,2,363,125877,108612,77.0
2026-04-18T19:22:33.705,2,364,125877,108612,77.0
2026-04-18T19:22:33.715,2,365,125877,108612,77.0
2026-04-18T19:22:33.725,2,366,125877,108612,77.0
2026-04-18T19:22:33.734,2,367,125855,108544,77.0
2026-04-18T19:22:33.745,2,368,125855,108544,77.0
2026-04-18T19:22:33.755,2,369,125855,108544,77.0
2026-04-18T19:22:33.765,2,370,125855,108544,77.0
2026-04-18T19:22:33.775,2,371,125810,108450,77.0
2026-04-18T19:22:33.785,2,372,125810,108450,77.0
2026-04-18T19:22:33.795,2,373,125810,108450,77.0
2026-04-18T19:22:33.805,2,374,125810,108450,77.0
2026-04-18T19:22:33.815,2,375,125775,108377,77.0
2026-04-18T19:22:33.824,2,376,125775,108377,77.0
2026-04-18T19:22:33.835,2,377,125775,108377,77.0
2026-04-18T19:22:33.844,2,378,125775,108377,77.0
2026-04-18T19:22:33.855,2,379,125741,108268,77.0
2026-04-18T19:22:33.865,2,380,125741,108268,77.0
2026-04-18T19:22:33.875,2,381,125741,108268,77.0
2026-04-18T19:22:33.884,2,382,125741,108268,77.0
2026-04-18T19:22:33.895,2,383,125777,108361,77.0
2026-04-18T19:22:33.904,2,384,125777,108361,77.0
2026-04-18T19:22:33.915,2,385,125777,108361,77.0
2026-04-18T19:22:33.924,2,386,125777,108361,77.0
2026-04-18T19:22:33.935,2,387,125822,108474,77.0
2026-04-18T19:22:33.944,2,388,125822,108474,77.0
2026-04-18T19:22:33.954,2,389,125822,108474,77.0
2026-04-18T19:22:33.965,2,390,125822,108474,77.0
2026-04-18T19:22:33.975,2,391,125861,108608,77.0
2026-04-18T19:22:33.984,2,392,125861,108608,77.0
2026-04-18T19:22:33.994,2,393,125861,108608,77.0
2026-04-18T19:22:34.004,2,394,125861,108608,77.0
2026-04-18T19:22:34.015,2,395,125878,108669,77.0
2026-04-18T19:22:34.024,2,396,125878,108669,77.0
2026-04-18T19:22:34.034,2,397,125878,108669,77.0
2026-04-18T19:22:34.044,2,398,125878,108669,77.0
2026-04-18T19:22:34.054,2,399,125868,108669,77.0
2026-04-18T19:22:34.064,2,400,125868,108669,77.0
2026-04-18T19:22:34.074,2,401,125868,108669,77.0
2026-04-18T19:22:34.084,2,402,125868,108669,77.0
2026-04-18T19:22:34.094,2,403,125904,108735,77.0
2026-04-18T19:22:34.104,2,404,125904,108735,77.0
2026-04-18T19:22:34.115,2,405,125904,108735,77.0
2026-04-18T19:22:34.124,2,406,125904,108735,77.0
2026-04-18T19:22:34.135,2,407,125975,108846,77.0
2026-04-18T19:22:34.144,2,408,125975,108846,77.0
2026-04-18T19:22:34.154,2,409,125975,108846,77.0
2026-04-18T19:22:34.164,2,410,125975,108846,77.0
2026-04-18T19:22:34.174,2,411,126000,108901,77.0
2026-04-18T19:22:34.184,2,412,126000,108901,77.0
2026-04-18T19:22:34.194,2,413,126000,108901,77.0
2026-04-18T19:22:34.204,2,414,126000,108901,77.0
2026-04-18T19:22:34.214,2,415,125944,108808,77.0
2026-04-18T19:22:34.224,2,416,125944,108808,77.0
2026-04-18T19:22:34.234,2,417,125944,108808,77.0
2026-04-18T19:22:34.244,2,418,125944,108808,77.0
2026-04-18T19:22:34.254,2,419,125899,108709,77.0
2026-04-18T19:22:34.264,2,420,125899,108709,77.0
2026-04-18T19:22:34.274,2,421,125899,108709,77.0
2026-04-18T19:22:34.284,2,422,125899,108709,77.0
2026-04-18T19:22:34.294,2,423,125871,108631,77.0
2026-04-18T19:22:34.304,2,424,125871,108631,77.0
2026-04-18T19:22:34.314,2,425,125871,108631,77.0
2026-04-18T19:22:34.324,2,426,125871,108631,77.0
2026-04-18T19:22:34.334,2,427,125822,108535,77.0
2026-04-18T19:22:34.344,2,428,125822,108535,77.0
2026-04-18T19:22:34.354,2,429,125822,108535,77.0
2026-04-18T19:22:34.364,2,430,125822,108535,77.0
2026-04-18T19:22:34.374,2,431,125784,108446,77.0
2026-04-18T19:22:34.384,2,432,125784,108446,77.0
2026-04-18T19:22:34.394,2,433,125784,108446,77.0
2026-04-18T19:22:34.404,2,434,125784,108446,77.0
2026-04-18T19:22:34.414,2,435,125677,108243,77.0
2026-04-18T19:22:34.424,2,436,125677,108243,77.0
2026-04-18T19:22:34.434,2,437,125677,108243,77.0
2026-04-18T19:22:34.444,2,438,125677,108243,77.0
2026-04-18T19:22:34.454,2,439,125454,107821,77.0
2026-04-18T19:22:34.464,2,440,125454,107821,77.0
2026-04-18T19:22:34.474,2,441,125454,107821,77.0
2026-04-18T19:22:34.484,2,442,125454,107821,77.0
2026-04-18T19:22:34.494,2,443,125314,107522,77.0
2026-04-18T19:22:34.504,2,444,125314,107522,77.0
2026-04-18T19:22:34.514,2,445,125314,107522,77.0
2026-04-18T19:22:34.524,2,446,125314,107522,77.0
2026-04-18T19:22:34.534,2,447,125043,107064,77.0
2026-04-18T19:22:34.544,2,448,125043,107064,77.0
2026-04-18T19:22:34.554,2,449,125043,107064,77.0
2026-04-18T19:22:34.564,2,450,125043,107064,77.0
2026-04-18T19:22:34.574,2,451,124847,106674,77.0
2026-04-18T19:22:34.584,2,452,124847,106674,77.0
2026-04-18T19:22:34.594,2,453,124847,106674,77.0
2026-04-18T19:22:34.604,2,454,124847,106674,77.0
2026-04-18T19:22:34.614,2,455,124731,106470,77.0
2026-04-18T19:22:34.624,2,456,124731,106470,77.0
2026-04-18T19:22:34.634,2,457,124731,106470,77.0
2026-04-18T19:22:34.644,2,458,124731,106470,77.0
2026-04-18T19:22:34.654,2,459,124635,106271,77.0
2026-04-18T19:22:34.664,2,460,124635,106271,77.0
2026-04-18T19:22:34.674,2,461,124635,106271,77.0
2026-04-18T19:22:34.683,2,462,124635,106271,77.0
2026-04-18T19:22:34.694,2,463,124500,106077,77.0
2026-04-18T19:22:34.704,2,464,124500,106077,77.0
2026-04-18T19:22:34.714,2,465,124500,106077,77.0
2026-04-18T19:22:34.724,2,466,124500,106077,77.0
2026-04-18T19:22:34.734,2,467,124443,106016,77.0
2026-04-18T19:22:34.744,2,468,124443,106016,77.0
2026-04-18T19:22:34.753,2,469,124443,106016,77.0
2026-04-18T19:22:34.764,2,470,124443,106016,77.0
2026-04-18T19:22:34.774,2,471,124386,105956,77.0
2026-04-18T19:22:34.784,2,472,124386,105956,77.0
2026-04-18T19:22:34.793,2,473,124386,105956,77.0
2026-04-18T19:22:34.803,2,474,124386,105956,77.0
2026-04-18T19:22:34.814,2,475,124243,105770,77.0
2026-04-18T19:22:34.824,2,476,124243,105770,77.0
2026-04-18T19:22:34.834,2,477,124243,105770,77.0
2026-04-18T19:22:34.843,2,478,124243,105770,77.0
2026-04-18T19:22:34.854,2,479,124129,105651,77.0
2026-04-18T19:22:34.864,2,480,124129,105651,77.0
2026-04-18T19:22:34.874,2,481,124129,105651,77.0
2026-04-18T19:22:34.884,2,482,124129,105651,77.0
2026-04-18T19:22:34.894,2,483,124058,105539,77.0
2026-04-18T19:22:34.904,2,484,124058,105539,77.0
2026-04-18T19:22:34.914,2,485,124058,105539,77.0
2026-04-18T19:22:34.924,2,486,124058,105539,77.0
2026-04-18T19:22:34.934,2,487,123981,105409,77.0
2026-04-18T19:22:34.944,2,488,123981,105409,77.0
2026-04-18T19:22:34.954,2,489,123981,105409,77.0
2026-04-18T19:22:34.964,2,490,123981,105409,77.0
2026-04-18T19:22:34.974,2,491,123879,105256,77.0
2026-04-18T19:22:34.984,2,492,123879,105256,77.0
2026-04-18T19:22:34.994,2,493,123879,105256,77.0
2026-04-18T19:22:35.003,2,494,123879,105256,77.0
2026-04-18T19:22:35.013,2,495,123768,105070,77.0
2026-04-18T19:22:35.023,2,496,123768,105070,77.0
2026-04-18T19:22:35.033,2,497,123768,105070,77.0
2026-04-18T19:22:35.043,2,498,123768,105070,77.0
2026-04-18T19:22:35.053,2,499,123679,104875,77.0
2026-04-18T19:22:35.063,2,500,123679,104875,77.0
2026-04-18T19:22:35.073,2,501,123679,104875,77.0
2026-04-18T19:22:35.083,2,502,123679,104875,77.0
2026-04-18T19:22:35.093,2,503,123614,104752,77.0
2026-04-18T19:22:35.103,2,504,123614,104752,77.0
2026-04-18T19:22:35.113,2,505,123614,104752,77.0
2026-04-18T19:22:35.123,2,506,123614,104752,77.0
2026-04-18T19:22:35.133,2,507,123578,104628,77.0
2026-04-18T19:22:35.143,2,508,123578,104628,77.0
2026-04-18T19:22:35.153,2,509,123578,104628,77.0
2026-04-18T19:22:35.163,2,510,123578,104628,77.0
2026-04-18T19:22:35.173,2,511,123527,104551,77.0
2026-04-18T19:22:35.183,2,512,123527,104551,77.0
2026-04-18T19:22:35.193,2,513,123527,104551,77.0
2026-04-18T19:22:35.203,2,514,123527,104551,77.0
2026-04-18T19:22:35.213,2,515,123509,104523,77.0
2026-04-18T19:22:35.223,2,516,123509,104523,77.0
2026-04-18T19:22:35.233,2,517,123509,104523,77.0
2026-04-18T19:22:35.243,2,518,123509,104523,77.0
2026-04-18T19:22:35.253,2,519,123522,104538,77.0
2026-04-18T19:22:35.263,2,520,123522,104538,77.0
2026-04-18T19:22:35.273,2,521,123522,104538,77.0
2026-04-18T19:22:35.283,2,522,123522,104538,77.0
2026-04-18T19:22:35.293,2,523,123527,104508,77.0
2026-04-18T19:22:35.303,2,524,123527,104508,77.0
2026-04-18T19:22:35.313,2,525,123527,104508,77.0
2026-04-18T19:22:35.323,2,526,123527,104508,77.0
2026-04-18T19:22:35.333,2,527,123558,104536,77.0
2026-04-18T19:22:35.343,2,528,123558,104536,77.0
2026-04-18T19:22:35.353,2,529,123558,104536,77.0
2026-04-18T19:22:35.363,2,530,123558,104536,77.0
2026-04-18T19:22:35.373,2,531,123603,104602,77.0
2026-04-18T19:22:35.383,2,532,123603,104602,77.0
2026-04-18T19:22:35.393,2,533,123603,104602,77.0
2026-04-18T19:22:35.403,2,534,123603,104602,77.0
2026-04-18T19:22:35.413,2,535,123708,104764,77.0
2026-04-18T19:22:35.423,2,536,123708,104764,77.0
2026-04-18T19:22:35.433,2,537,123708,104764,77.0
2026-04-18T19:22:35.443,2,538,123708,104764,77.0
2026-04-18T19:22:35.453,2,539,123824,105001,77.0
2026-04-18T19:22:35.463,2,540,123824,105001,77.0
2026-04-18T19:22:35.473,2,541,123824,105001,77.0
2026-04-18T19:22:35.483,2,542,123824,105001,77.0
2026-04-18T19:22:35.493,2,543,123973,105288,77.0
2026-04-18T19:22:35.503,2,544,123973,105288,77.0
2026-04-18T19:22:35.513,2,545,123973,105288,77.0
2026-04-18T19:22:35.523,2,546,123973,105288,77.0
2026-04-18T19:22:35.533,2,547,124147,105602,77.0
2026-04-18T19:22:35.543,2,548,124147,105602,77.0
2026-04-18T19:22:35.553,2,549,124147,105602,77.0
2026-04-18T19:22:35.563,2,550,124147,105602,77.0
2026-04-18T19:22:35.572,2,551,124303,105910,77.0
2026-04-18T19:22:35.583,2,552,124303,105910,77.0
2026-04-18T19:22:35.593,2,553,124303,105910,77.0
2026-04-18T19:22:35.603,2,554,124303,105910,77.0
2026-04-18T19:22:35.613,2,555,124638,106452,77.0
2026-04-18T19:22:35.623,2,556,124638,106452,77.0
2026-04-18T19:22:35.633,2,557,124638,106452,77.0
2026-04-18T19:22:35.642,2,558,124638,106452,77.0
2026-04-18T19:22:35.653,2,559,125074,107204,77.0
2026-04-18T19:22:35.662,2,560,125074,107204,77.0
2026-04-18T19:22:35.673,2,561,125074,107204,77.0
2026-04-18T19:22:35.683,2,562,125074,107204,77.0
2026-04-18T19:22:35.693,2,563,125400,107753,77.0
2026-04-18T19:22:35.703,2,564,125400,107753,77.0
2026-04-18T19:22:35.713,2,565,125400,107753,77.0
2026-04-18T19:22:35.722,2,566,125400,107753,77.0
2026-04-18T19:22:35.733,2,567,125663,108218,77.0
2026-04-18T19:22:35.742,2,568,125663,108218,77.0
2026-04-18T19:22:35.753,2,569,125663,108218,77.0
2026-04-18T19:22:35.762,2,570,125663,108218,77.0
2026-04-18T19:22:35.773,2,571,125656,108235,77.0
2026-04-18T19:22:35.782,2,572,125656,108235,77.0
2026-04-18T19:22:35.792,2,573,125656,108235,77.0
2026-04-18T19:22:35.802,2,574,125656,108235,77.0
2026-04-18T19:22:35.812,2,575,125497,107942,77.0
2026-04-18T19:22:35.822,2,576,125497,107942,77.0
2026-04-18T19:22:35.832,2,577,125497,107942,77.0
2026-04-18T19:22:35.842,2,578,125497,107942,77.0
2026-04-18T19:22:35.852,2,579,125441,107833,77.0
2026-04-18T19:22:35.862,2,580,125441,107833,77.0
2026-04-18T19:22:35.872,2,581,125441,107833,77.0
2026-04-18T19:22:35.882,2,582,125441,107833,77.0
2026-04-18T19:22:35.892,2,583,125479,107891,77.0
2026-04-18T19:22:35.902,2,584,125479,107891,77.0
2026-04-18T19:22:35.913,2,585,125479,107891,77.0
2026-04-18T19:22:35.922,2,586,125479,107891,77.0
2026-04-18T19:22:35.933,2,587,125531,107996,77.0
2026-04-18T19:22:35.942,2,588,125531,107996,77.0
2026-04-18T19:22:35.952,2,589,125531,107996,77.0
2026-04-18T19:22:35.962,2,590,125531,107996,77.0
2026-04-18T19:22:35.972,2,591,125596,108108,77.0
2026-04-18T19:22:35.983,2,592,125596,108108,77.0
2026-04-18T19:22:35.992,2,593,125596,108108,77.0
2026-04-18T19:22:36.002,2,594,125596,108108,77.0
2026-04-18T19:22:36.012,2,595,125638,108203,77.0
2026-04-18T19:22:36.022,2,596,125638,108203,77.0
2026-04-18T19:22:36.032,2,597,125638,108203,77.0
2026-04-18T19:22:36.042,2,598,125638,108203,77.0
2026-04-18T19:22:36.052,2,599,125664,108309,77.0
2026-04-18T19:22:36.062,2,600,125664,108309,77.0
2026-04-18T19:22:36.073,2,601,125664,108309,77.0
2026-04-18T19:22:36.082,2,602,125664,108309,77.0
2026-04-18T19:22:36.092,2,603,125287,107792,77.0
2026-04-18T19:22:36.102,2,604,125287,107792,77.0
2026-04-18T19:22:36.112,2,605,125287,107792,77.0
2026-04-18T19:22:36.122,2,606,125287,107792,77.0
2026-04-18T19:22:36.132,2,607,124175,105673,77.0
2026-04-18T19:22:36.142,2,608,124175,105673,77.0
2026-04-18T19:22:36.152,2,609,124175,105673,77.0
2026-04-18T19:22:36.162,2,610,124175,105673,77.0
2026-04-18T19:22:36.172,2,611,124129,105556,77.0
2026-04-18T19:22:36.182,2,612,124129,105556,77.0
2026-04-18T19:22:36.192,2,613,124129,105556,77.0
2026-04-18T19:22:36.202,2,614,124129,105556,77.0
2026-04-18T19:22:36.212,2,615,124493,106507,77.0
2026-04-18T19:22:36.222,2,616,124493,106507,77.0
2026-04-18T19:22:36.232,2,617,124493,106507,77.0
2026-04-18T19:22:36.242,2,618,124493,106507,77.0
2026-04-18T19:22:36.252,2,619,124533,106749,77.0
2026-04-18T19:22:36.262,2,620,124533,106749,77.0
2026-04-18T19:22:36.272,2,621,124533,106749,77.0
2026-04-18T19:22:36.282,2,622,124533,106749,77.0
2026-04-18T19:22:36.292,2,623,124388,106464,77.0
2026-04-18T19:22:36.302,2,624,124388,106464,77.0
2026-04-18T19:22:36.312,2,625,124388,106464,77.0
2026-04-18T19:22:36.322,2,626,124388,106464,77.0
2026-04-18T19:22:36.332,2,627,124423,106481,77.0
2026-04-18T19:22:36.342,2,628,124423,106481,77.0
2026-04-18T19:22:36.352,2,629,124423,106481,77.0
2026-04-18T19:22:36.362,2,630,124423,106481,77.0
2026-04-18T19:22:36.372,2,631,124253,105878,77.0
2026-04-18T19:22:36.382,2,632,124253,105878,77.0
2026-04-18T19:22:36.391,2,633,124253,105878,77.0
2026-04-18T19:22:36.402,2,634,124253,105878,77.0
2026-04-18T19:22:36.412,2,635,124216,105396,77.0
2026-04-18T19:22:36.422,2,636,124216,105396,77.0
2026-04-18T19:22:36.431,2,637,124216,105396,77.0
2026-04-18T19:22:36.441,2,638,124216,105396,77.0
2026-04-18T19:22:36.452,2,639,124197,104965,77.0
2026-04-18T19:22:36.462,2,640,124197,104965,77.0
2026-04-18T19:22:36.472,2,641,124197,104965,77.0
2026-04-18T19:22:36.482,2,642,124197,104965,77.0
2026-04-18T19:22:36.492,2,643,124255,104732,77.0
2026-04-18T19:22:36.502,2,644,124255,104732,77.0
2026-04-18T19:22:36.512,2,645,124255,104732,77.0
2026-04-18T19:22:36.522,2,646,124255,104732,77.0
2026-04-18T19:22:36.532,2,647,124328,104565,77.0
2026-04-18T19:22:36.542,2,648,124328,104565,77.0
2026-04-18T19:22:36.552,2,649,124328,104565,77.0
2026-04-18T19:22:36.561,2,650,124328,104565,77.0
2026-04-18T19:22:36.572,2,651,124479,104611,77.0
2026-04-18T19:22:36.581,2,652,124479,104611,77.0
2026-04-18T19:22:36.591,2,653,124479,104611,77.0
2026-04-18T19:22:36.601,2,654,124479,104611,77.0
2026-04-18T19:22:36.611,2,655,124472,104493,77.0
2026-04-18T19:22:36.621,2,656,124472,104493,77.0
2026-04-18T19:22:36.632,2,657,124472,104493,77.0
2026-04-18T19:22:36.641,2,658,124472,104493,77.0
2026-04-18T19:22:36.652,2,659,124373,104239,77.0
2026-04-18T19:22:36.661,2,660,124373,104239,77.0
2026-04-18T19:22:36.671,2,661,124373,104239,77.0
2026-04-18T19:22:36.681,2,662,124373,104239,77.0
2026-04-18T19:22:36.691,2,663,124392,104259,77.0
2026-04-18T19:22:36.701,2,664,124392,104259,77.0
2026-04-18T19:22:36.712,2,665,124392,104259,77.0
2026-04-18T19:22:36.721,2,666,124392,104259,77.0
2026-04-18T19:22:36.731,2,667,124515,104483,77.0
2026-04-18T19:22:36.741,2,668,124515,104483,77.0
2026-04-18T19:22:36.752,2,669,124515,104483,77.0
2026-04-18T19:22:36.761,2,670,124515,104483,77.0
2026-04-18T19:22:36.772,2,671,124588,104610,77.0
2026-04-18T19:22:36.781,2,672,124588,104610,77.0
2026-04-18T19:22:36.791,2,673,124588,104610,77.0
2026-04-18T19:22:36.801,2,674,124588,104610,77.0
2026-04-18T19:22:36.811,2,675,124680,104784,77.0
2026-04-18T19:22:36.821,2,676,124680,104784,77.0
2026-04-18T19:22:36.832,2,677,124680,104784,77.0
2026-04-18T19:22:36.842,2,678,124680,104784,77.0
2026-04-18T19:22:36.851,2,679,124746,104924,77.0
2026-04-18T19:22:36.861,2,680,124746,104924,77.0
2026-04-18T19:22:36.871,2,681,124746,104924,77.0
2026-04-18T19:22:36.881,2,682,124746,104924,77.0
2026-04-18T19:22:36.892,2,683,124828,105058,77.0
2026-04-18T19:22:36.901,2,684,124828,105058,77.0
2026-04-18T19:22:36.911,2,685,124828,105058,77.0
2026-04-18T19:22:36.921,2,686,124828,105058,77.0
2026-04-18T19:22:36.931,2,687,124930,105257,77.0
2026-04-18T19:22:36.941,2,688,124930,105257,77.0
2026-04-18T19:22:36.951,2,689,124930,105257,77.0
2026-04-18T19:22:36.961,2,690,124930,105257,77.0
2026-04-18T19:22:36.971,2,691,124994,105462,77.0
2026-04-18T19:22:36.981,2,692,124994,105462,77.0
2026-04-18T19:22:36.992,2,693,124994,105462,77.0
2026-04-18T19:22:37.001,2,694,124994,105462,77.0
2026-04-18T19:22:37.011,2,695,124985,105508,77.0
2026-04-18T19:22:37.021,2,696,124985,105508,77.0
2026-04-18T19:22:37.031,2,697,124985,105508,77.0
2026-04-18T19:22:37.041,2,698,124985,105508,77.0
2026-04-18T19:22:37.051,2,699,124965,105496,77.0
2026-04-18T19:22:37.061,2,700,124965,105496,77.0
2026-04-18T19:22:37.071,2,701,124965,105496,77.0
2026-04-18T19:22:37.081,2,702,124965,105496,77.0
2026-04-18T19:22:37.091,2,703,124918,105424,77.0
2026-04-18T19:22:37.101,2,704,124918,105424,77.0
2026-04-18T19:22:37.111,2,705,124918,105424,77.0
2026-04-18T19:22:37.121,2,706,124918,105424,77.0
2026-04-18T19:22:37.131,2,707,124878,105335,77.0
2026-04-18T19:22:37.141,2,708,124878,105335,77.0
2026-04-18T19:22:37.151,2,709,124878,105335,77.0
2026-04-18T19:22:37.161,2,710,124878,105335,77.0
2026-04-18T19:22:37.171,2,711,124839,105218,77.0
2026-04-18T19:22:37.181,2,712,124839,105218,77.0
2026-04-18T19:22:37.191,2,713,124839,105218,77.0
2026-04-18T19:22:37.201,2,714,124839,105218,77.0
2026-04-18T19:22:37.211,2,715,124696,104927,77.0
2026-04-18T19:22:37.221,2,716,124696,104927,77.0
2026-04-18T19:22:37.231,2,717,124696,104927,77.0
2026-04-18T19:22:37.241,2,718,124696,104927,77.0
2026-04-18T19:22:37.251,2,719,124916,105373,77.0
2026-04-18T19:22:37.261,2,720,124916,105373,77.0
2026-04-18T19:22:37.271,2,721,124916,105373,77.0
2026-04-18T19:22:37.281,2,722,124916,105373,77.0
2026-04-18T19:22:37.291,2,723,124922,105413,77.0
2026-04-18T19:22:37.301,2,724,124922,105413,77.0
2026-04-18T19:22:37.311,2,725,124922,105413,77.0
2026-04-18T19:22:37.321,2,726,124922,105413,77.0
2026-04-18T19:22:37.331,2,727,124724,105031,77.0
2026-04-18T19:22:37.341,2,728,124724,105031,77.0
2026-04-18T19:22:37.351,2,729,124724,105031,77.0
2026-04-18T19:22:37.361,2,730,124724,105031,77.0
2026-04-18T19:22:37.371,2,731,124692,104960,77.0
2026-04-18T19:22:37.381,2,732,124692,104960,77.0
2026-04-18T19:22:37.391,2,733,124692,104960,77.0
2026-04-18T19:22:37.401,2,734,124692,104960,77.0
2026-04-18T19:22:37.411,2,735,124768,105140,77.0
2026-04-18T19:22:37.421,2,736,124768,105140,77.0
2026-04-18T19:22:37.431,2,737,124768,105140,77.0
2026-04-18T19:22:37.441,2,738,124768,105140,77.0
2026-04-18T19:22:37.451,2,739,124739,105110,77.0
2026-04-18T19:22:37.461,2,740,124739,105110,77.0
2026-04-18T19:22:37.471,2,741,124739,105110,77.0
2026-04-18T19:22:37.481,2,742,124739,105110,77.0
2026-04-18T19:22:37.491,2,743,124727,105138,77.0
2026-04-18T19:22:37.501,2,744,124727,105138,77.0
2026-04-18T19:22:37.511,2,745,124727,105138,77.0
2026-04-18T19:22:37.521,2,746,124727,105138,77.0
2026-04-18T19:22:37.531,2,747,124768,105195,77.0
2026-04-18T19:22:37.541,2,748,124768,105195,77.0
2026-04-18T19:22:37.550,2,749,124768,105195,77.0
2026-04-18T19:22:37.561,2,750,124768,105195,77.0
2026-04-18T19:22:37.570,2,751,124784,105236,77.0
2026-04-18T19:22:37.581,2,752,124784,105236,77.0
2026-04-18T19:22:37.591,2,753,124784,105236,77.0
2026-04-18T19:22:37.600,2,754,124784,105236,77.0
2026-04-18T19:22:37.610,2,755,124767,105195,77.0
2026-04-18T19:22:37.620,2,756,124767,105195,77.0
2026-04-18T19:22:37.630,2,757,124767,105195,77.0
2026-04-18T19:22:37.640,2,758,124767,105195,77.0
2026-04-18T19:22:37.651,2,759,124770,105158,77.0
2026-04-18T19:22:37.661,2,760,124770,105158,77.0
2026-04-18T19:22:37.671,2,761,124770,105158,77.0
2026-04-18T19:22:37.680,2,762,124770,105158,77.0
2026-04-18T19:22:37.691,2,763,124741,105100,77.0
2026-04-18T19:22:37.701,2,764,124741,105100,77.0
2026-04-18T19:22:37.711,2,765,124741,105100,77.0
2026-04-18T19:22:37.720,2,766,124741,105100,77.0
2026-04-18T19:22:37.731,2,767,124816,105269,77.0
2026-04-18T19:22:37.741,2,768,124816,105269,77.0
2026-04-18T19:22:37.750,2,769,124816,105269,77.0
2026-04-18T19:22:37.761,2,770,124816,105269,77.0
2026-04-18T19:22:37.771,2,771,124871,105419,77.0
2026-04-18T19:22:37.780,2,772,124871,105419,77.0
2026-04-18T19:22:37.790,2,773,124871,105419,77.0
2026-04-18T19:22:37.800,2,774,124871,105419,77.0
2026-04-18T19:22:37.810,2,775,124859,105390,77.0
2026-04-18T19:22:37.820,2,776,124859,105390,77.0
2026-04-18T19:22:37.831,2,777,124859,105390,77.0
2026-04-18T19:22:37.840,2,778,124859,105390,77.0
2026-04-18T19:22:37.851,2,779,124824,105316,77.0
2026-04-18T19:22:37.860,2,780,124824,105316,77.0
2026-04-18T19:22:37.870,2,781,124824,105316,77.0
2026-04-18T19:22:37.881,2,782,124824,105316,77.0
2026-04-18T19:22:37.890,2,783,124902,105485,77.0
2026-04-18T19:22:37.900,2,784,124902,105485,77.0
2026-04-18T19:22:37.910,2,785,124902,105485,77.0
2026-04-18T19:22:37.921,2,786,124902,105485,77.0
2026-04-18T19:22:37.930,2,787,124985,105638,77.0
2026-04-18T19:22:37.941,2,788,124985,105638,77.0
2026-04-18T19:22:37.950,2,789,124985,105638,77.0
2026-04-18T19:22:37.960,2,790,124985,105638,77.0
2026-04-18T19:22:37.970,2,791,124977,105629,77.0
2026-04-18T19:22:37.980,2,792,124977,105629,77.0
2026-04-18T19:22:37.990,2,793,124977,105629,77.0
2026-04-18T19:22:38.000,2,794,124977,105629,77.0
2026-04-18T19:22:38.010,2,795,125017,105739,77.0
2026-04-18T19:22:38.020,2,796,125017,105739,77.0
2026-04-18T19:22:38.030,2,797,125017,105739,77.0
2026-04-18T19:22:38.040,2,798,125017,105739,77.0
2026-04-18T19:22:38.050,2,799,124987,105657,77.0
2026-04-18T19:22:38.060,2,800,124987,105657,77.0
2026-04-18T19:22:38.070,2,801,124987,105657,77.0
2026-04-18T19:22:38.080,2,802,124987,105657,77.0
2026-04-18T19:22:38.090,2,803,124940,105560,77.0
2026-04-18T19:22:38.100,2,804,124940,105560,77.0
2026-04-18T19:22:38.110,2,805,124940,105560,77.0
2026-04-18T19:22:38.120,2,806,124940,105560,77.0
2026-04-18T19:22:38.130,2,807,125044,105784,77.0
2026-04-18T19:22:38.139,2,808,125044,105784,77.0
2026-04-18T19:22:38.150,2,809,125044,105784,77.0
2026-04-18T19:22:38.160,2,810,125044,105784,77.0
2026-04-18T19:22:38.170,2,811,125125,105962,77.0
2026-04-18T19:22:38.180,2,812,125125,105962,77.0
2026-04-18T19:22:38.189,2,813,125125,105962,77.0
2026-04-18T19:22:38.200,2,814,125125,105962,77.0
2026-04-18T19:22:38.210,2,815,125393,106421,77.0
2026-04-18T19:22:38.220,2,816,125393,106421,77.0
2026-04-18T19:22:38.229,2,817,125393,106421,77.0
2026-04-18T19:22:38.240,2,818,125393,106421,77.0
2026-04-18T19:22:38.250,2,819,125468,106531,77.0
2026-04-18T19:22:38.260,2,820,125468,106531,77.0
2026-04-18T19:22:38.270,2,821,125468,106531,77.0
2026-04-18T19:22:38.280,2,822,125468,106531,77.0
2026-04-18T19:22:38.290,2,823,125428,106396,77.0
2026-04-18T19:22:38.300,2,824,125428,106396,77.0
2026-04-18T19:22:38.310,2,825,125428,106396,77.0
2026-04-18T19:22:38.320,2,826,125428,106396,77.0
2026-04-18T19:22:38.330,2,827,125408,106264,77.0
2026-04-18T19:22:38.340,2,828,125408,106264,77.0
2026-04-18T19:22:38.350,2,829,125408,106264,77.0
2026-04-18T19:22:38.360,2,830,125408,106264,77.0
2026-04-18T19:22:38.370,2,831,125485,106367,77.0
2026-04-18T19:22:38.380,2,832,125485,106367,77.0
2026-04-18T19:22:38.390,2,833,125485,106367,77.0
2026-04-18T19:22:38.400,2,834,125485,106367,77.0
2026-04-18T19:22:38.410,2,835,125649,106629,77.0
2026-04-18T19:22:38.420,2,836,125649,106629,77.0
2026-04-18T19:22:38.430,2,837,125649,106629,77.0
2026-04-18T19:22:38.440,2,838,125649,106629,77.0
2026-04-18T19:22:38.450,2,839,125686,106708,77.0
2026-04-18T19:22:38.459,2,840,125686,106708,77.0
2026-04-18T19:22:38.469,2,841,125686,106708,77.0
2026-04-18T19:22:38.479,2,842,125686,106708,77.0
2026-04-18T19:22:38.489,2,843,125772,106900,77.0
2026-04-18T19:22:38.499,2,844,125772,106900,77.0
2026-04-18T19:22:38.510,2,845,125772,106900,77.0
2026-04-18T19:22:38.520,2,846,125772,106900,77.0
2026-04-18T19:22:38.529,2,847,125914,107164,77.0
2026-04-18T19:22:38.539,2,848,125914,107164,77.0
2026-04-18T19:22:38.549,2,849,125914,107164,77.0
2026-04-18T19:22:38.559,2,850,125914,107164,77.0
2026-04-18T19:22:38.570,2,851,125946,107203,77.0
2026-04-18T19:22:38.579,2,852,125946,107203,77.0
2026-04-18T19:22:38.589,2,853,125946,107203,77.0
2026-04-18T19:22:38.599,2,854,125946,107203,77.0
2026-04-18T19:22:38.609,2,855,125862,107026,77.0
2026-04-18T19:22:38.619,2,856,125862,107026,77.0
2026-04-18T19:22:38.629,2,857,125862,107026,77.0
2026-04-18T19:22:38.639,2,858,125862,107026,77.0
2026-04-18T19:22:38.649,2,859,125834,106893,77.0
2026-04-18T19:22:38.659,2,860,125834,106893,77.0
2026-04-18T19:22:38.669,2,861,125834,106893,77.0
2026-04-18T19:22:38.679,2,862,125834,106893,77.0
2026-04-18T19:22:38.689,2,863,125980,107085,77.0
2026-04-18T19:22:38.699,2,864,125980,107085,77.0
2026-04-18T19:22:38.709,2,865,125980,107085,77.0
2026-04-18T19:22:38.719,2,866,125980,107085,77.0
2026-04-18T19:22:38.729,2,867,126117,107291,77.0
2026-04-18T19:22:38.739,2,868,126117,107291,77.0
2026-04-18T19:22:38.749,2,869,126117,107291,77.0
2026-04-18T19:22:38.759,2,870,126117,107291,77.0
2026-04-18T19:22:38.769,2,871,126055,107211,77.0
2026-04-18T19:22:38.779,2,872,126055,107211,77.0
2026-04-18T19:22:38.789,2,873,126055,107211,77.0
2026-04-18T19:22:38.799,2,874,126055,107211,77.0
2026-04-18T19:22:38.809,2,875,125987,107069,77.0
2026-04-18T19:22:38.819,2,876,125987,107069,77.0
2026-04-18T19:22:38.829,2,877,125987,107069,77.0
2026-04-18T19:22:38.839,2,878,125987,107069,77.0
2026-04-18T19:22:38.849,2,879,125813,106797,77.0
2026-04-18T19:22:38.859,2,880,125813,106797,77.0
2026-04-18T19:22:38.869,2,881,125813,106797,77.0
2026-04-18T19:22:38.880,2,882,125813,106797,77.0
2026-04-18T19:22:38.890,2,883,125780,106736,77.0
2026-04-18T19:22:38.899,2,884,125780,106736,77.0
2026-04-18T19:22:38.909,2,885,125780,106736,77.0
2026-04-18T19:22:38.919,2,886,125780,106736,77.0
2026-04-18T19:22:38.929,2,887,125839,106851,77.0
2026-04-18T19:22:38.939,2,888,125839,106851,77.0
2026-04-18T19:22:38.950,2,889,125839,106851,77.0
2026-04-18T19:22:38.959,2,890,125839,106851,77.0
2026-04-18T19:22:38.969,2,891,125872,106906,77.0
2026-04-18T19:22:38.979,2,892,125872,106906,77.0
2026-04-18T19:22:38.989,2,893,125872,106906,77.0
2026-04-18T19:22:38.999,2,894,125872,106906,77.0
2026-04-18T19:22:39.009,2,895,125698,106658,77.0
2026-04-18T19:22:39.019,2,896,125698,106658,77.0
2026-04-18T19:22:39.029,2,897,125698,106658,77.0
2026-04-18T19:22:39.039,2,898,125698,106658,77.0
2026-04-18T19:22:39.049,2,899,125482,106272,77.0
2026-04-18T19:22:39.059,2,900,125482,106272,77.0
2026-04-18T19:22:39.069,2,901,125482,106272,77.0
2026-04-18T19:22:39.079,2,902,125482,106272,77.0
2026-04-18T19:22:39.089,2,903,125238,105862,77.0
2026-04-18T19:22:39.099,2,904,125238,105862,77.0
2026-04-18T19:22:39.109,2,905,125238,105862,77.0
2026-04-18T19:22:39.119,2,906,125238,105862,77.0
2026-04-18T19:22:39.129,2,907,125036,105501,77.0
2026-04-18T19:22:39.139,2,908,125036,105501,77.0
2026-04-18T19:22:39.149,2,909,125036,105501,77.0
2026-04-18T19:22:39.159,2,910,125036,105501,77.0
2026-04-18T19:22:39.168,2,911,124835,105225,77.0
2026-04-18T19:22:39.179,2,912,124835,105225,77.0
2026-04-18T19:22:39.189,2,913,124835,105225,77.0
2026-04-18T19:22:39.199,2,914,124835,105225,77.0
2026-04-18T19:22:39.209,2,915,124659,105006,77.0
2026-04-18T19:22:39.219,2,916,124659,105006,77.0
2026-04-18T19:22:39.229,2,917,124659,105006,77.0
2026-04-18T19:22:39.238,2,918,124659,105006,77.0
2026-04-18T19:22:39.249,2,919,124537,104822,77.0
2026-04-18T19:22:39.259,2,920,124537,104822,77.0
2026-04-18T19:22:39.269,2,921,124537,104822,77.0
2026-04-18T19:22:39.279,2,922,124537,104822,77.0
2026-04-18T19:22:39.289,2,923,124359,104535,77.0
2026-04-18T19:22:39.299,2,924,124359,104535,77.0
2026-04-18T19:22:39.309,2,925,124359,104535,77.0
2026-04-18T19:22:39.319,2,926,124359,104535,77.0
2026-04-18T19:22:39.329,2,927,124280,104424,77.0
2026-04-18T19:22:39.339,2,928,124280,104424,77.0
2026-04-18T19:22:39.349,2,929,124280,104424,77.0
2026-04-18T19:22:39.359,2,930,124280,104424,77.0
2026-04-18T19:22:39.369,2,931,124279,104465,77.0
2026-04-18T19:22:39.379,2,932,124279,104465,77.0
2026-04-18T19:22:39.389,2,933,124279,104465,77.0
2026-04-18T19:22:39.398,2,934,124279,104465,77.0
2026-04-18T19:22:39.408,2,935,124260,104448,77.0
2026-04-18T19:22:39.418,2,936,124260,104448,77.0
2026-04-18T19:22:39.428,2,937,124260,104448,77.0
2026-04-18T19:22:39.438,2,938,124260,104448,77.0
2026-04-18T19:22:39.448,2,939,124290,104550,77.0
2026-04-18T19:22:39.459,2,940,124290,104550,77.0
2026-04-18T19:22:39.468,2,941,124290,104550,77.0
2026-04-18T19:22:39.478,2,942,124290,104550,77.0
2026-04-18T19:22:39.488,2,943,124257,104502,77.0
2026-04-18T19:22:39.498,2,944,124257,104502,77.0
2026-04-18T19:22:39.508,2,945,124257,104502,77.0
2026-04-18T19:22:39.518,2,946,124257,104502,77.0
2026-04-18T19:22:39.528,2,947,124351,104681,77.0
2026-04-18T19:22:39.539,2,948,124351,104681,77.0
2026-04-18T19:22:39.548,2,949,124351,104681,77.0
2026-04-18T19:22:39.558,2,950,124351,104681,77.0
2026-04-18T19:22:39.568,2,951,124363,104735,77.0
2026-04-18T19:22:39.579,2,952,124363,104735,77.0
2026-04-18T19:22:39.589,2,953,124363,104735,77.0
2026-04-18T19:22:39.598,2,954,124363,104735,77.0
2026-04-18T19:22:39.608,2,955,124384,104804,77.0
2026-04-18T19:22:39.619,2,956,124384,104804,77.0
2026-04-18T19:22:39.629,2,957,124384,104804,77.0
2026-04-18T19:22:39.639,2,958,124384,104804,77.0
2026-04-18T19:22:39.648,2,959,124433,104867,77.0
2026-04-18T19:22:39.658,2,960,124433,104867,77.0
2026-04-18T19:22:39.668,2,961,124433,104867,77.0
2026-04-18T19:22:39.678,2,962,124433,104867,77.0
2026-04-18T19:22:39.688,2,963,124558,105147,77.0
2026-04-18T19:22:39.698,2,964,124558,105147,77.0
2026-04-18T19:22:39.708,2,965,124558,105147,77.0
2026-04-18T19:22:39.719,2,966,124558,105147,77.0
2026-04-18T19:22:39.728,2,967,124597,105244,77.0
2026-04-18T19:22:39.739,2,968,124597,105244,77.0
2026-04-18T19:22:39.748,2,969,124597,105244,77.0
2026-04-18T19:22:39.758,2,970,124597,105244,77.0
2026-04-18T19:22:39.768,2,971,124684,105361,77.0
2026-04-18T19:22:39.778,2,972,124684,105361,77.0
2026-04-18T19:22:39.788,2,973,124684,105361,77.0
2026-04-18T19:22:39.798,2,974,124684,105361,77.0
2026-04-18T19:22:39.808,2,975,124904,105795,77.0
2026-04-18T19:22:39.818,2,976,124904,105795,77.0
2026-04-18T19:22:39.828,2,977,124904,105795,77.0
2026-04-18T19:22:39.838,2,978,124904,105795,77.0
2026-04-18T19:22:39.848,2,979,125084,106239,77.0
2026-04-18T19:22:39.858,2,980,125084,106239,77.0
2026-04-18T19:22:39.868,2,981,125084,106239,77.0
2026-04-18T19:22:39.878,2,982,125084,106239,77.0
2026-04-18T19:22:39.888,2,983,125457,106909,77.0
2026-04-18T19:22:39.898,2,984,125457,106909,77.0
2026-04-18T19:22:39.908,2,985,125457,106909,77.0
2026-04-18T19:22:39.918,2,986,125457,106909,77.0
2026-04-18T19:22:39.928,2,987,125908,107810,77.0
2026-04-18T19:22:39.938,2,988,125908,107810,77.0
2026-04-18T19:22:39.948,2,989,125908,107810,77.0
2026-04-18T19:22:39.958,2,990,125908,107810,77.0
2026-04-18T19:22:39.968,2,991,126177,108399,77.0
2026-04-18T19:22:39.978,2,992,126177,108399,77.0
2026-04-18T19:22:39.988,2,993,126177,108399,77.0
2026-04-18T19:22:39.998,2,994,126177,108399,77.0
2026-04-18T19:22:40.008,2,995,126365,108782,77.0
2026-04-18T19:22:40.018,2,996,126365,108782,77.0
2026-04-18T19:22:40.028,2,997,126365,108782,77.0
2026-04-18T19:22:40.038,2,998,126365,108782,77.0
2026-04-18T19:22:40.048,2,999,126539,109185,77.0
2026-04-18T19:22:40.058,2,1000,126539,109185,77.0
2026-04-18T19:22:40.068,2,1001,126539,109185,77.0
2026-04-18T19:23:04.243,3,0,125736,107880,78.0
2026-04-18T19:23:04.243,3,1,125738,107867,78.0
2026-04-18T19:23:04.244,3,2,125738,107867,78.0
2026-04-18T19:23:04.244,3,3,125738,107867,78.0
2026-04-18T19:23:04.244,3,4,125738,107867,78.0
2026-04-18T19:23:04.245,3,5,125715,107843,78.0
2026-04-18T19:23:04.245,3,6,125715,107843,78.0
2026-04-18T19:23:04.245,3,7,125715,107843,78.0
2026-04-18T19:23:04.245,3,8,125715,107843,78.0
2026-04-18T19:23:04.246,3,9,125681,107766,78.0
2026-04-18T19:23:04.246,3,10,125681,107766,78.0
2026-04-18T19:23:04.246,3,11,125681,107766,78.0
2026-04-18T19:23:04.246,3,12,125681,107766,78.0
2026-04-18T19:23:04.246,3,13,125713,107805,78.0
2026-04-18T19:23:04.247,3,14,125713,107805,78.0
2026-04-18T19:23:04.247,3,15,125713,107805,78.0
2026-04-18T19:23:04.247,3,16,125713,107805,78.0
2026-04-18T19:23:04.247,3,17,125716,107790,78.0
2026-04-18T19:23:04.247,3,18,125716,107790,78.0
2026-04-18T19:23:04.248,3,19,127880,115277,78.0
2026-04-18T19:23:04.248,3,20,127880,115277,78.0
2026-04-18T19:23:04.248,3,21,127880,115277,78.0
2026-04-18T19:23:04.248,3,22,127880,115277,78.0
2026-04-18T19:23:04.248,3,23,127880,115277,78.0
2026-04-18T19:23:04.248,3,24,127880,115277,78.0
2026-04-18T19:23:04.249,3,25,127880,115277,78.0
2026-04-18T19:23:04.249,3,26,127880,115277,78.0
2026-04-18T19:23:04.249,3,27,127880,115277,78.0
2026-04-18T19:23:04.249,3,28,127880,115277,78.0
2026-04-18T19:23:04.249,3,29,127880,115277,78.0
2026-04-18T19:23:04.249,3,30,127880,115277,78.0
2026-04-18T19:23:04.249,3,31,127880,115277,78.0
2026-04-18T19:23:04.252,3,32,127880,115277,78.0
2026-04-18T19:23:04.262,3,33,127673,114902,78.0
2026-04-18T19:23:04.272,3,34,127673,114902,78.0
2026-04-18T19:23:04.282,3,35,127673,114902,78.0
2026-04-18T19:23:04.292,3,36,127673,114902,78.0
2026-04-18T19:23:04.302,3,37,127229,114144,78.0
2026-04-18T19:23:04.312,3,38,127229,114144,78.0
2026-04-18T19:23:04.323,3,39,127229,114144,78.0
2026-04-18T19:23:04.332,3,40,127229,114144,78.0
2026-04-18T19:23:04.342,3,41,126616,113020,78.0
2026-04-18T19:23:04.352,3,42,126616,113020,78.0
2026-04-18T19:23:04.362,3,43,126616,113020,78.0
2026-04-18T19:23:04.372,3,44,126616,113020,78.0
2026-04-18T19:23:04.382,3,45,126243,112434,78.0
2026-04-18T19:23:04.392,3,46,126243,112434,78.0
2026-04-18T19:23:04.402,3,47,126243,112434,78.0
2026-04-18T19:23:04.412,3,48,126243,112434,78.0
2026-04-18T19:23:04.422,3,49,125494,111082,78.0
2026-04-18T19:23:04.432,3,50,125494,111082,78.0
2026-04-18T19:23:04.442,3,51,125494,111082,78.0
2026-04-18T19:23:04.452,3,52,125494,111082,78.0
2026-04-18T19:23:04.462,3,53,124922,110089,78.0
2026-04-18T19:23:04.472,3,54,124922,110089,78.0
2026-04-18T19:23:04.482,3,55,124922,110089,78.0
2026-04-18T19:23:04.492,3,56,124922,110089,78.0
2026-04-18T19:23:04.502,3,57,123747,107961,78.0
2026-04-18T19:23:04.512,3,58,123747,107961,78.0
2026-04-18T19:23:04.522,3,59,123747,107961,78.0
2026-04-18T19:23:04.532,3,60,123747,107961,78.0
2026-04-18T19:23:04.542,3,61,123175,106784,78.0
2026-04-18T19:23:04.551,3,62,123175,106784,78.0
2026-04-18T19:23:04.561,3,63,123175,106784,78.0
2026-04-18T19:23:04.571,3,64,123175,106784,78.0
2026-04-18T19:23:04.581,3,65,122252,105068,78.0
2026-04-18T19:23:04.591,3,66,122252,105068,78.0
2026-04-18T19:23:04.601,3,67,122252,105068,78.0
2026-04-18T19:23:04.611,3,68,122252,105068,78.0
2026-04-18T19:23:04.621,3,69,121787,104184,78.0
2026-04-18T19:23:04.631,3,70,121787,104184,78.0
2026-04-18T19:23:04.641,3,71,121787,104184,78.0
2026-04-18T19:23:04.651,3,72,121787,104184,78.0
2026-04-18T19:23:04.661,3,73,121551,103647,78.0
2026-04-18T19:23:04.671,3,74,121551,103647,78.0
2026-04-18T19:23:04.681,3,75,121551,103647,78.0
2026-04-18T19:23:04.692,3,76,121551,103647,78.0
2026-04-18T19:23:04.702,3,77,121427,103295,78.0
2026-04-18T19:23:04.712,3,78,121427,103295,78.0
2026-04-18T19:23:04.722,3,79,121427,103295,78.0
2026-04-18T19:23:04.732,3,80,121427,103295,78.0
2026-04-18T19:23:04.742,3,81,121347,103044,78.0
2026-04-18T19:23:04.751,3,82,121347,103044,78.0
2026-04-18T19:23:04.762,3,83,121347,103044,78.0
2026-04-18T19:23:04.772,3,84,121347,103044,78.0
2026-04-18T19:23:04.782,3,85,121294,102873,78.0
2026-04-18T19:23:04.792,3,86,121294,102873,78.0
2026-04-18T19:23:04.802,3,87,121294,102873,78.0
2026-04-18T19:23:04.811,3,88,121294,102873,78.0
2026-04-18T19:23:04.821,3,89,121253,102775,78.0
2026-04-18T19:23:04.832,3,90,121253,102775,78.0
2026-04-18T19:23:04.842,3,91,121253,102775,78.0
2026-04-18T19:23:04.852,3,92,121253,102775,78.0
2026-04-18T19:23:04.862,3,93,121247,102719,78.0
2026-04-18T19:23:04.872,3,94,121247,102719,78.0
2026-04-18T19:23:04.882,3,95,121247,102719,78.0
2026-04-18T19:23:04.891,3,96,121247,102719,78.0
2026-04-18T19:23:04.902,3,97,121201,102582,78.0
2026-04-18T19:23:04.912,3,98,121201,102582,78.0
2026-04-18T19:23:04.922,3,99,121201,102582,78.0
2026-04-18T19:23:04.932,3,100,121201,102582,78.0
2026-04-18T19:23:04.942,3,101,121189,102539,78.0
2026-04-18T19:23:04.952,3,102,121189,102539,78.0
2026-04-18T19:23:04.962,3,103,121189,102539,78.0
2026-04-18T19:23:04.971,3,104,121189,102539,78.0
2026-04-18T19:23:04.981,3,105,121166,102507,78.0
2026-04-18T19:23:04.992,3,106,121166,102507,78.0
2026-04-18T19:23:05.001,3,107,121166,102507,78.0
2026-04-18T19:23:05.011,3,108,121166,102507,78.0
2026-04-18T19:23:05.021,3,109,121184,102560,78.0
2026-04-18T19:23:05.032,3,110,121184,102560,78.0
2026-04-18T19:23:05.041,3,111,121184,102560,78.0
2026-04-18T19:23:05.052,3,112,121184,102560,78.0
2026-04-18T19:23:05.061,3,113,121227,102655,78.0
2026-04-18T19:23:05.072,3,114,121227,102655,78.0
2026-04-18T19:23:05.081,3,115,121227,102655,78.0
2026-04-18T19:23:05.091,3,116,121227,102655,78.0
2026-04-18T19:23:05.101,3,117,121227,102696,78.0
2026-04-18T19:23:05.111,3,118,121227,102696,78.0
2026-04-18T19:23:05.121,3,119,121227,102696,78.0
2026-04-18T19:23:05.131,3,120,121227,102696,78.0
2026-04-18T19:23:05.141,3,121,121291,102793,78.0
2026-04-18T19:23:05.151,3,122,121291,102793,78.0
2026-04-18T19:23:05.161,3,123,121291,102793,78.0
2026-04-18T19:23:05.171,3,124,121291,102793,78.0
2026-04-18T19:23:05.181,3,125,121347,102881,78.0
2026-04-18T19:23:05.191,3,126,121347,102881,78.0
2026-04-18T19:23:05.201,3,127,121347,102881,78.0
2026-04-18T19:23:05.211,3,128,121347,102881,78.0
2026-04-18T19:23:05.221,3,129,121377,102871,78.0
2026-04-18T19:23:05.231,3,130,121377,102871,78.0
2026-04-18T19:23:05.241,3,131,121377,102871,78.0
2026-04-18T19:23:05.251,3,132,121377,102871,78.0
2026-04-18T19:23:05.260,3,133,121367,102831,78.0
2026-04-18T19:23:05.271,3,134,121367,102831,78.0
2026-04-18T19:23:05.280,3,135,121367,102831,78.0
2026-04-18T19:23:05.290,3,136,121367,102831,78.0
2026-04-18T19:23:05.300,3,137,121404,102847,78.0
2026-04-18T19:23:05.311,3,138,121404,102847,78.0
2026-04-18T19:23:05.321,3,139,121404,102847,78.0
2026-04-18T19:23:05.331,3,140,121404,102847,78.0
2026-04-18T19:23:05.341,3,141,121439,102825,78.0
2026-04-18T19:23:05.351,3,142,121439,102825,78.0
2026-04-18T19:23:05.361,3,143,121439,102825,78.0
2026-04-18T19:23:05.371,3,144,121439,102825,78.0
2026-04-18T19:23:05.381,3,145,121463,102801,78.0
2026-04-18T19:23:05.391,3,146,121463,102801,78.0
2026-04-18T19:23:05.401,3,147,121463,102801,78.0
2026-04-18T19:23:05.411,3,148,121463,102801,78.0
2026-04-18T19:23:05.421,3,149,121397,102610,78.0
2026-04-18T19:23:05.430,3,150,121397,102610,78.0
2026-04-18T19:23:05.441,3,151,121397,102610,78.0
2026-04-18T19:23:05.451,3,152,121397,102610,78.0
2026-04-18T19:23:05.461,3,153,121352,102464,78.0
2026-04-18T19:23:05.471,3,154,121352,102464,78.0
2026-04-18T19:23:05.481,3,155,121352,102464,78.0
2026-04-18T19:23:05.490,3,156,121352,102464,78.0
2026-04-18T19:23:05.500,3,157,121340,102406,78.0
2026-04-18T19:23:05.511,3,158,121340,102406,78.0
2026-04-18T19:23:05.520,3,159,121340,102406,78.0
2026-04-18T19:23:05.531,3,160,121340,102406,78.0
2026-04-18T19:23:05.541,3,161,121325,102349,78.0
2026-04-18T19:23:05.551,3,162,121325,102349,78.0
2026-04-18T19:23:05.561,3,163,121325,102349,78.0
2026-04-18T19:23:05.571,3,164,121325,102349,78.0
2026-04-18T19:23:05.581,3,165,121325,102289,78.0
2026-04-18T19:23:05.591,3,166,121325,102289,78.0
2026-04-18T19:23:05.601,3,167,121325,102289,78.0
2026-04-18T19:23:05.611,3,168,121325,102289,78.0
2026-04-18T19:23:05.621,3,169,121352,102303,78.0
2026-04-18T19:23:05.631,3,170,121352,102303,78.0
2026-04-18T19:23:05.640,3,171,121352,102303,78.0
2026-04-18T19:23:05.651,3,172,121352,102303,78.0
2026-04-18T19:23:05.661,3,173,121376,102315,78.0
2026-04-18T19:23:05.670,3,174,121376,102315,78.0
2026-04-18T19:23:05.681,3,175,121376,102315,78.0
2026-04-18T19:23:05.691,3,176,121376,102315,78.0
2026-04-18T19:23:05.700,3,177,121384,102311,78.0
2026-04-18T19:23:05.711,3,178,121384,102311,78.0
2026-04-18T19:23:05.721,3,179,121384,102311,78.0
2026-04-18T19:23:05.731,3,180,121384,102311,78.0
2026-04-18T19:23:05.741,3,181,121380,102336,78.0
2026-04-18T19:23:05.751,3,182,121380,102336,78.0
2026-04-18T19:23:05.761,3,183,121380,102336,78.0
2026-04-18T19:23:05.771,3,184,121380,102336,78.0
2026-04-18T19:23:05.780,3,185,121366,102362,78.0
2026-04-18T19:23:05.791,3,186,121366,102362,78.0
2026-04-18T19:23:05.801,3,187,121366,102362,78.0
2026-04-18T19:23:05.811,3,188,121366,102362,78.0
2026-04-18T19:23:05.820,3,189,121378,102410,78.0
2026-04-18T19:23:05.831,3,190,121378,102410,78.0
2026-04-18T19:23:05.841,3,191,121378,102410,78.0
2026-04-18T19:23:05.850,3,192,121378,102410,78.0
2026-04-18T19:23:05.861,3,193,121413,102480,78.0
2026-04-18T19:23:05.870,3,194,121413,102480,78.0
2026-04-18T19:23:05.881,3,195,121413,102480,78.0
2026-04-18T19:23:05.890,3,196,121413,102480,78.0
2026-04-18T19:23:05.901,3,197,121448,102568,78.0
2026-04-18T19:23:05.910,3,198,121448,102568,78.0
2026-04-18T19:23:05.921,3,199,121448,102568,78.0
2026-04-18T19:23:05.931,3,200,121448,102568,78.0
2026-04-18T19:23:05.940,3,201,121466,102586,78.0
2026-04-18T19:23:05.950,3,202,121466,102586,78.0
2026-04-18T19:23:05.960,3,203,121466,102586,78.0
2026-04-18T19:23:05.970,3,204,121466,102586,78.0
2026-04-18T19:23:05.980,3,205,121516,102678,78.0
2026-04-18T19:23:05.991,3,206,121516,102678,78.0
2026-04-18T19:23:06.001,3,207,121516,102678,78.0
2026-04-18T19:23:06.011,3,208,121516,102678,78.0
2026-04-18T19:23:06.020,3,209,121540,102739,78.0
2026-04-18T19:23:06.030,3,210,121540,102739,78.0
2026-04-18T19:23:06.040,3,211,121540,102739,78.0
2026-04-18T19:23:06.050,3,212,121540,102739,78.0
2026-04-18T19:23:06.060,3,213,121568,102765,78.0
2026-04-18T19:23:06.070,3,214,121568,102765,78.0
2026-04-18T19:23:06.080,3,215,121568,102765,78.0
2026-04-18T19:23:06.090,3,216,121568,102765,78.0
2026-04-18T19:23:06.100,3,217,121567,102750,78.0
2026-04-18T19:23:06.111,3,218,121567,102750,78.0
2026-04-18T19:23:06.120,3,219,121567,102750,78.0
2026-04-18T19:23:06.130,3,220,121567,102750,78.0
2026-04-18T19:23:06.140,3,221,121558,102744,78.0
2026-04-18T19:23:06.150,3,222,121558,102744,78.0
2026-04-18T19:23:06.160,3,223,121558,102744,78.0
2026-04-18T19:23:06.170,3,224,121558,102744,78.0
2026-04-18T19:23:06.180,3,225,121539,102717,78.0
2026-04-18T19:23:06.190,3,226,121539,102717,78.0
2026-04-18T19:23:06.200,3,227,121539,102717,78.0
2026-04-18T19:23:06.210,3,228,121539,102717,78.0
2026-04-18T19:23:06.220,3,229,121514,102695,78.0
2026-04-18T19:23:06.230,3,230,121514,102695,78.0
2026-04-18T19:23:06.240,3,231,121514,102695,78.0
2026-04-18T19:23:06.250,3,232,121514,102695,78.0
2026-04-18T19:23:06.260,3,233,121495,102665,78.0
2026-04-18T19:23:06.270,3,234,121495,102665,78.0
2026-04-18T19:23:06.280,3,235,121495,102665,78.0
2026-04-18T19:23:06.290,3,236,121495,102665,78.0
2026-04-18T19:23:06.300,3,237,121486,102654,78.0
2026-04-18T19:23:06.310,3,238,121486,102654,78.0
2026-04-18T19:23:06.320,3,239,121486,102654,78.0
2026-04-18T19:23:06.330,3,240,121486,102654,78.0
2026-04-18T19:23:06.340,3,241,121461,102596,78.0
2026-04-18T19:23:06.350,3,242,121461,102596,78.0
2026-04-18T19:23:06.360,3,243,121461,102596,78.0
2026-04-18T19:23:06.370,3,244,121461,102596,78.0
2026-04-18T19:23:06.380,3,245,121432,102530,78.0
2026-04-18T19:23:06.390,3,246,121432,102530,78.0
2026-04-18T19:23:06.400,3,247,121432,102530,78.0
2026-04-18T19:23:06.410,3,248,121432,102530,78.0
2026-04-18T19:23:06.420,3,249,121418,102524,78.0
2026-04-18T19:23:06.430,3,250,121418,102524,78.0
2026-04-18T19:23:06.440,3,251,121418,102524,78.0
2026-04-18T19:23:06.450,3,252,121418,102524,78.0
2026-04-18T19:23:06.460,3,253,121405,102531,78.0
2026-04-18T19:23:06.470,3,254,121405,102531,78.0
2026-04-18T19:23:06.480,3,255,121405,102531,78.0
2026-04-18T19:23:06.490,3,256,121405,102531,78.0
2026-04-18T19:23:06.499,3,257,121382,102558,78.0
2026-04-18T19:23:06.510,3,258,121382,102558,78.0
2026-04-18T19:23:06.519,3,259,121382,102558,78.0
2026-04-18T19:23:06.530,3,260,121382,102558,78.0
2026-04-18T19:23:06.539,3,261,121342,102576,78.0
2026-04-18T19:23:06.550,3,262,121342,102576,78.0
2026-04-18T19:23:06.559,3,263,121342,102576,78.0
2026-04-18T19:23:06.570,3,264,121342,102576,78.0
2026-04-18T19:23:06.580,3,265,121333,102612,78.0
2026-04-18T19:23:06.590,3,266,121333,102612,78.0
2026-04-18T19:23:06.600,3,267,121333,102612,78.0
2026-04-18T19:23:06.610,3,268,121333,102612,78.0
2026-04-18T19:23:06.620,3,269,121325,102625,78.0
2026-04-18T19:23:06.630,3,270,121325,102625,78.0
2026-04-18T19:23:06.640,3,271,121325,102625,78.0
2026-04-18T19:23:06.650,3,272,121325,102625,78.0
2026-04-18T19:23:06.660,3,273,121313,102635,78.0
2026-04-18T19:23:06.670,3,274,121313,102635,78.0
2026-04-18T19:23:06.680,3,275,121313,102635,78.0
2026-04-18T19:23:06.689,3,276,121313,102635,78.0
2026-04-18T19:23:06.700,3,277,121340,102698,78.0
2026-04-18T19:23:06.710,3,278,121340,102698,78.0
2026-04-18T19:23:06.719,3,279,121340,102698,78.0
2026-04-18T19:23:06.729,3,280,121340,102698,78.0
2026-04-18T19:23:06.740,3,281,121368,102778,78.0
2026-04-18T19:23:06.749,3,282,121368,102778,78.0
2026-04-18T19:23:06.759,3,283,121368,102778,78.0
2026-04-18T19:23:06.769,3,284,121368,102778,78.0
2026-04-18T19:23:06.779,3,285,121462,102878,78.0
2026-04-18T19:23:06.789,3,286,121462,102878,78.0
2026-04-18T19:23:06.799,3,287,121462,102878,78.0
2026-04-18T19:23:06.809,3,288,121462,102878,78.0
2026-04-18T19:23:06.819,3,289,121504,102917,78.0
2026-04-18T19:23:06.829,3,290,121504,102917,78.0
2026-04-18T19:23:06.839,3,291,121504,102917,78.0
2026-04-18T19:23:06.849,3,292,121504,102917,78.0
2026-04-18T19:23:06.859,3,293,121581,102997,78.0
2026-04-18T19:23:06.869,3,294,121581,102997,78.0
2026-04-18T19:23:06.880,3,295,121581,102997,78.0
2026-04-18T19:23:06.889,3,296,121581,102997,78.0
2026-04-18T19:23:06.899,3,297,121603,102982,78.0
2026-04-18T19:23:06.909,3,298,121603,102982,78.0
2026-04-18T19:23:06.919,3,299,121603,102982,78.0
2026-04-18T19:23:06.930,3,300,121603,102982,78.0
2026-04-18T19:23:06.939,3,301,121634,102963,78.0
2026-04-18T19:23:06.949,3,302,121634,102963,78.0
2026-04-18T19:23:06.959,3,303,121634,102963,78.0
2026-04-18T19:23:06.969,3,304,121634,102963,78.0
2026-04-18T19:23:06.979,3,305,121699,103004,78.0
2026-04-18T19:23:06.989,3,306,121699,103004,78.0
2026-04-18T19:23:06.999,3,307,121699,103004,78.0
2026-04-18T19:23:07.009,3,308,121699,103004,78.0
2026-04-18T19:23:07.019,3,309,121796,103066,78.0
2026-04-18T19:23:07.029,3,310,121796,103066,78.0
2026-04-18T19:23:07.039,3,311,121796,103066,78.0
2026-04-18T19:23:07.049,3,312,121796,103066,78.0
2026-04-18T19:23:07.059,3,313,121812,102992,78.0
2026-04-18T19:23:07.069,3,314,121812,102992,78.0
2026-04-18T19:23:07.079,3,315,121812,102992,78.0
2026-04-18T19:23:07.089,3,316,121812,102992,78.0
2026-04-18T19:23:07.099,3,317,121840,102979,78.0
2026-04-18T19:23:07.109,3,318,121840,102979,78.0
2026-04-18T19:23:07.119,3,319,121840,102979,78.0
2026-04-18T19:23:07.129,3,320,121840,102979,78.0
2026-04-18T19:23:07.140,3,321,121868,102967,78.0
2026-04-18T19:23:07.149,3,322,121868,102967,78.0
2026-04-18T19:23:07.159,3,323,121868,102967,78.0
2026-04-18T19:23:07.169,3,324,121868,102967,78.0
2026-04-18T19:23:07.179,3,325,121948,103071,78.0
2026-04-18T19:23:07.189,3,326,121948,103071,78.0
2026-04-18T19:23:07.199,3,327,121948,103071,78.0
2026-04-18T19:23:07.209,3,328,121948,103071,78.0
2026-04-18T19:23:07.219,3,329,121986,103109,78.0
2026-04-18T19:23:07.229,3,330,121986,103109,78.0
2026-04-18T19:23:07.239,3,331,121986,103109,78.0
2026-04-18T19:23:07.249,3,332,121986,103109,78.0
2026-04-18T19:23:07.259,3,333,121987,103118,78.0
2026-04-18T19:23:07.269,3,334,121987,103118,78.0
2026-04-18T19:23:07.279,3,335,121987,103118,78.0
2026-04-18T19:23:07.289,3,336,121987,103118,78.0
2026-04-18T19:23:07.298,3,337,122000,103123,78.0
2026-04-18T19:23:07.308,3,338,122000,103123,78.0
2026-04-18T19:23:07.318,3,339,122000,103123,78.0
2026-04-18T19:23:07.328,3,340,122000,103123,78.0
2026-04-18T19:23:07.338,3,341,122023,103196,78.0
2026-04-18T19:23:07.348,3,342,122023,103196,78.0
2026-04-18T19:23:07.358,3,343,122023,103196,78.0
2026-04-18T19:23:07.369,3,344,122023,103196,78.0
2026-04-18T19:23:07.378,3,345,122060,103197,78.0
2026-04-18T19:23:07.388,3,346,122060,103197,78.0
2026-04-18T19:23:07.398,3,347,122060,103197,78.0
2026-04-18T19:23:07.408,3,348,122060,103197,78.0
2026-04-18T19:23:07.418,3,349,122104,103277,78.0
2026-04-18T19:23:07.429,3,350,122104,103277,78.0
2026-04-18T19:23:07.438,3,351,122104,103277,78.0
2026-04-18T19:23:07.449,3,352,122104,103277,78.0
2026-04-18T19:23:07.458,3,353,122142,103318,78.0
2026-04-18T19:23:07.469,3,354,122142,103318,78.0
2026-04-18T19:23:07.479,3,355,122142,103318,78.0
2026-04-18T19:23:07.489,3,356,122142,103318,78.0
2026-04-18T19:23:07.498,3,357,122123,103266,78.0
2026-04-18T19:23:07.508,3,358,122123,103266,78.0
2026-04-18T19:23:07.518,3,359,122123,103266,78.0
2026-04-18T19:23:07.528,3,360,122123,103266,78.0
2026-04-18T19:23:07.538,3,361,122106,103194,78.0
2026-04-18T19:23:07.548,3,362,122106,103194,78.0
2026-04-18T19:23:07.558,3,363,122106,103194,78.0
2026-04-18T19:23:07.568,3,364,122106,103194,78.0
2026-04-18T19:23:07.578,3,365,122113,103198,78.0
2026-04-18T19:23:07.588,3,366,122113,103198,78.0
2026-04-18T19:23:07.598,3,367,122113,103198,78.0
2026-04-18T19:23:07.608,3,368,122113,103198,78.0
2026-04-18T19:23:07.618,3,369,122142,103209,78.0
2026-04-18T19:23:07.628,3,370,122142,103209,78.0
2026-04-18T19:23:07.638,3,371,122142,103209,78.0
2026-04-18T19:23:07.648,3,372,122142,103209,78.0
2026-04-18T19:23:07.658,3,373,122150,103185,78.0
2026-04-18T19:23:07.668,3,374,122150,103185,78.0
2026-04-18T19:23:07.678,3,375,122150,103185,78.0
2026-04-18T19:23:07.688,3,376,122150,103185,78.0
2026-04-18T19:23:07.698,3,377,122147,103144,78.0
2026-04-18T19:23:07.708,3,378,122147,103144,78.0
2026-04-18T19:23:07.718,3,379,122147,103144,78.0
2026-04-18T19:23:07.728,3,380,122147,103144,78.0
2026-04-18T19:23:07.738,3,381,122157,103124,78.0
2026-04-18T19:23:07.748,3,382,122157,103124,78.0
2026-04-18T19:23:07.758,3,383,122157,103124,78.0
2026-04-18T19:23:07.768,3,384,122157,103124,78.0
2026-04-18T19:23:07.778,3,385,122149,103087,78.0
2026-04-18T19:23:07.788,3,386,122149,103087,78.0
2026-04-18T19:23:07.798,3,387,122149,103087,78.0
2026-04-18T19:23:07.808,3,388,122149,103087,78.0
2026-04-18T19:23:07.818,3,389,122125,103022,78.0
2026-04-18T19:23:07.828,3,390,122125,103022,78.0
2026-04-18T19:23:07.838,3,391,122125,103022,78.0
2026-04-18T19:23:07.848,3,392,122125,103022,78.0
2026-04-18T19:23:07.858,3,393,122109,102983,78.0
2026-04-18T19:23:07.868,3,394,122109,102983,78.0
2026-04-18T19:23:07.878,3,395,122109,102983,78.0
2026-04-18T19:23:07.888,3,396,122109,102983,78.0
2026-04-18T19:23:07.898,3,397,122130,102978,78.0
2026-04-18T19:23:07.908,3,398,122130,102978,78.0
2026-04-18T19:23:07.918,3,399,122130,102978,78.0
2026-04-18T19:23:07.928,3,400,122130,102978,78.0
2026-04-18T19:23:07.938,3,401,122121,102970,78.0
2026-04-18T19:23:07.948,3,402,122121,102970,78.0
2026-04-18T19:23:07.958,3,403,122121,102970,78.0
2026-04-18T19:23:07.968,3,404,122121,102970,78.0
2026-04-18T19:23:07.978,3,405,122092,102935,78.0
2026-04-18T19:23:07.988,3,406,122092,102935,78.0
2026-04-18T19:23:07.998,3,407,122092,102935,78.0
2026-04-18T19:23:08.008,3,408,122092,102935,78.0
2026-04-18T19:23:08.018,3,409,122078,102949,78.0
2026-04-18T19:23:08.028,3,410,122078,102949,78.0
2026-04-18T19:23:08.038,3,411,122078,102949,78.0
2026-04-18T19:23:08.048,3,412,122078,102949,78.0
2026-04-18T19:23:08.058,3,413,122068,102974,78.0
2026-04-18T19:23:08.068,3,414,122068,102974,78.0
2026-04-18T19:23:08.078,3,415,122068,102974,78.0
2026-04-18T19:23:08.088,3,416,122068,102974,78.0
2026-04-18T19:23:08.098,3,417,122051,102962,78.0
2026-04-18T19:23:08.108,3,418,122051,102962,78.0
2026-04-18T19:23:08.118,3,419,122051,102962,78.0
2026-04-18T19:23:08.128,3,420,122051,102962,78.0
2026-04-18T19:23:08.138,3,421,122065,103008,78.0
2026-04-18T19:23:08.148,3,422,122065,103008,78.0
2026-04-18T19:23:08.158,3,423,122065,103008,78.0
2026-04-18T19:23:08.168,3,424,122065,103008,78.0
2026-04-18T19:23:08.178,3,425,122072,103029,78.0
2026-04-18T19:23:08.187,3,426,122072,103029,78.0
2026-04-18T19:23:08.198,3,427,122072,103029,78.0
2026-04-18T19:23:08.208,3,428,122072,103029,78.0
2026-04-18T19:23:08.218,3,429,122118,103078,78.0
2026-04-18T19:23:08.227,3,430,122118,103078,78.0
2026-04-18T19:23:08.238,3,431,122118,103078,78.0
2026-04-18T19:23:08.248,3,432,122118,103078,78.0
2026-04-18T19:23:08.258,3,433,122139,103112,78.0
2026-04-18T19:23:08.268,3,434,122139,103112,78.0
2026-04-18T19:23:08.278,3,435,122139,103112,78.0
2026-04-18T19:23:08.288,3,436,122139,103112,78.0
2026-04-18T19:23:08.298,3,437,122205,103190,78.0
2026-04-18T19:23:08.308,3,438,122205,103190,78.0
2026-04-18T19:23:08.318,3,439,122205,103190,78.0
2026-04-18T19:23:08.328,3,440,122205,103190,78.0
2026-04-18T19:23:08.338,3,441,122283,103278,78.0
2026-04-18T19:23:08.347,3,442,122283,103278,78.0
2026-04-18T19:23:08.357,3,443,122283,103278,78.0
2026-04-18T19:23:08.367,3,444,122283,103278,78.0
2026-04-18T19:23:08.377,3,445,122357,103350,78.0
2026-04-18T19:23:08.387,3,446,122357,103350,78.0
2026-04-18T19:23:08.398,3,447,122357,103350,78.0
2026-04-18T19:23:08.408,3,448,122357,103350,78.0
2026-04-18T19:23:08.417,3,449,122443,103447,78.0
